Header_Len,39
File_Name,LinearImpulseResponse_AA2_2024326_A.csv
Who,Almut Pingel
Calculation_Date,2024-326
Start_Source_Date,2018-292
End_Source_Date,2024-223
Configuration,AA2
Name,Linear Impulse Response
Source,Salar de Uyuni
Note,First test result
Fit_function,"Sum of EMGs. Last EMG is left-looking, leftEMG=EMG(-x,K,-mu,sigma)"
Fit_params_spot1_times,-0.2921769534186246,1.5736402873179953,14.99899319023075,176.07502100974168,27.430004161980623,8.118667665967862,6.0958960701209834,42.659979666725796,-0.46711926327329517
Fit_params_spot1_sigmas,0.4062676720370634,0.8047373023827153,0.6333112505551582,57.939545497794114,0.5103389730606593,0.6607221768203966,0.5974820774772149,0.5497032447674592,0.3535383148679104
Fit_params_spot1_Ks,1.3178128463512306,1.1475300249679494,1.222899418758321,0.08140113738356922,1.330805124503896,10.0,4.9996288901381405,1.8792925844576256,0.6710421996012089
Fit_params_spot1_norms,0.8044895634361807,0.03191682189592718,0.001553891713273755,0.002173204137868932,0.0008443361233510814,0.00021994735224613492,0.0006125287452495344,3.5299134861800786e-05,0.1581544074610409
Fit_params_spot2_times,-0.08696830092051563,2.0158242475596304,14.803580319007654,180.5662847918937,27.39744848240079,7.9731637940431,6.098542842911238,42.88739434544634,-0.21196442678078906
Fit_params_spot2_sigmas,0.3497444762830013,0.5405524142348458,0.6077949003143147,52.956045958782,0.46713490757960513,0.6678689314971532,0.5967835295868396,0.21283859888519452,0.3824402353586491
Fit_params_spot2_Ks,1.6265311465937133,1.82385065531814,1.3371756314747936,0.1776013367996166,1.7301576993615129,8.970398405503905,4.999885654532656,2.507270268917803,0.5078455729385852
Fit_params_spot2_norms,0.5738658715973132,0.020715516301496175,0.0014709352680783256,0.004249273849197155,0.0003072795492110497,0.0002014527379412564,0.000424153926348084,2.6619047913802734e-05,0.39873889772250093
Fit_params_spot3_times,-0.07709568105379949,1.7401261885706019,15.188703407133247,176.31843423885493,27.086294867047947,8.56740346913055,6.099273774980414,42.604228582379676,-0.21901653916227146
Fit_params_spot3_sigmas,0.34889839464665656,0.6072191556206342,0.5420531018615186,55.52637534077808,0.5507631031003314,0.7527470171934204,0.5989518624623735,0.2555330558711547,0.38008124973969415
Fit_params_spot3_Ks,1.613698836370147,1.6687024600837583,1.0651230049339517,0.0951455050219739,1.2762783699896143,10.0,4.999875501360616,0.8723374512513864,0.5743563892308029
Fit_params_spot3_norms,0.5744251855780016,0.0206071488409865,0.0008845780206115173,0.0037292055773529317,0.0006327313411543013,0.00033346218480571676,0.0002981870633134383,7.307877180250135e-06,0.3990821935165938
Fit_params_spot4_times,-0.10300858686119704,2.1035409915197274,15.204960207491055,177.7399107195515,27.59489230396152,7.300777555927944,6.100159779893873,42.99210260284933,-0.22720048787591185
Fit_params_spot4_sigmas,0.3355429690893199,0.48131306303215227,0.6883481458163971,51.75389301277721,0.538069338095254,0.5300532122220115,0.5994956798728897,0.424092195455064,0.35862535584148736
Fit_params_spot4_Ks,1.762326254319043,2.1363068051614427,0.8489204213548119,0.045974605046662044,1.2692859141839108,10.0,4.999980314793413,0.9523280955267315,0.602083467442888
Fit_params_spot4_norms,0.6000406097531692,0.013066100101870558,0.0017972884710776168,0.005130725744378153,0.000813421712689451,0.0003105478332877332,0.00023419115645694074,2.4233311212715825e-05,0.37858288191585776
Fit_params_spot5_times,-0.03889541495237556,1.9656806679951933,14.873593645487649,176.26146790584002,27.353765144574865,8.18685395263194,6.1011418731228755,42.66067343230507,-0.1787254279458252
Fit_params_spot5_sigmas,0.3597235071692608,0.569437977619256,0.6293839227202341,57.43196863340383,0.5439898972087392,0.6662804136874707,0.5971606272331345,0.20295734726665893,0.41539590905135004
Fit_params_spot5_Ks,1.589121960108827,1.720226668536496,1.1336660591164656,0.08171187875933282,1.473277214076739,10.0,4.99979465851072,3.74358462719643,0.480116467938575
Fit_params_spot5_norms,0.5214228754681463,0.01594980414065468,0.0018713872138525027,0.004329389096976278,0.0009011248548954233,0.00025582798824863427,0.00039337056284187227,2.5497280553450192e-05,0.4548507233938308
Fit_params_spot6_times,-0.19012211749741717,1.8548307236405999,14.898905750988886,176.6711115301388,27.453165085072495,8.207028625708,6.098104072250285,42.59481986927204,-0.3178557138338736
Fit_params_spot6_sigmas,0.36449277914665884,0.6864808944361319,0.6401515329974954,56.677223501213426,0.4996411834883316,0.5939823933159132,0.5989686410022586,0.14854751338665056,0.3627120156511938
Fit_params_spot6_Ks,1.5564437455665987,1.349774429998576,1.2529319742238272,0.1255996075461943,1.3866452055580007,10.0,4.999844584816843,4.8112562211584615,0.5394198807622822
Fit_params_spot6_norms,0.6879230124145732,0.020054176738545117,0.0026662301602899167,0.004702072410649327,0.0009693879102950239,6.722552528630022e-05,0.0004658815914656245,4.2189112155506926e-05,0.28310982413674
Number_Rows,11000
Number_Columns,13
Units,counts
TOF_ns,fit_spot_1,fit_spot_2,fit_spot_3,fit_spot_4,fit_spot_5,fit_spot_6,data_spot_1,data_spot_2,data_spot_3,data_spot_4,data_spot_5,data_spot_6
-49.975,2.8007010621547635e-10,6.851616036907062e-11,2.377125292936151e-10,1.027038067039654e-10,4.839107240125492e-10,3.686375929314733e-10,0.014325225589999824,-0.2743320839700001,0.45007299213999974,-1.2163008296000002,-0.18696399621000026,-0.29831548061000035
-49.925,2.810294168772875e-10,6.88047227560124e-11,2.386009896495465e-10,1.0314506538749878e-10,4.855988762330642e-10,3.6996713578760046e-10,-0.9856747744100002,0.7256679160299999,0.45007299213999974,0.7836991703999998,-1.1869639962100003,-1.2983154806100003
-49.875,2.8199180420010606e-10,6.909443943885454e-11,2.3949257735774776e-10,1.035881233576949e-10,4.872925497193171e-10,3.7130118679767265e-10,-0.9856747744100002,2.72566791603,-1.5499270078600003,-0.2163008296000002,-0.18696399621000026,1.7016845193899997
-49.824999999999996,2.8295727728957083e-10,6.938531476537457e-11,2.403873026624055e-10,1.0403298751570622e-10,4.889917611663198e-10,3.7263976015151367e-10,1.01432522559,2.72566791603,-0.5499270078600003,-0.2163008296000002,0.8130360037899997,-1.2983154806100003
-49.775,2.8392584527561614e-10,6.967735309858085e-11,2.4128517583840526e-10,1.0447966478730616e-10,4.906965273147412e-10,3.739828700796046e-10,0.014325225589999824,-1.27433208397,-0.5499270078600003,-1.2163008296000002,1.8130360037899997,-0.29831548061000035
-49.725,2.8489751731254446e-10,6.997055881675928e-11,2.421862071913897e-10,1.0492816212287439e-10,4.924068649509744e-10,3.7533053085316786e-10,0.014325225589999824,-1.27433208397,-0.5499270078600003,-1.2163008296000002,1.8130360037899997,-1.2983154806100003
-49.675,2.858723025789932e-10,7.026493631352759e-11,2.43090407057802e-10,1.0537848649756528e-10,4.941227909072235e-10,3.7668275678432035e-10,1.01432522559,0.7256679160299999,0.45007299213999974,-0.2163008296000002,-1.1869639962100003,1.7016845193899997
-49.625,2.868502102781853e-10,7.056048999787625e-11,2.4399778580501253e-10,1.0583064491134684e-10,4.958443220618016e-10,3.7803956222611795e-10,0.014325225589999824,-1.27433208397,0.45007299213999974,-0.2163008296000002,-1.1869639962100003,0.7016845193899997
-49.574999999999996,2.878312496377709e-10,7.08572242942257e-11,2.4490835383137293e-10,1.0628464438909293e-10,4.975714753390303e-10,3.794009615726908e-10,0.014325225589999824,0.7256679160299999,-0.5499270078600003,0.7836991703999998,-0.18696399621000026,-0.29831548061000035
-49.525,2.8881542991003393e-10,7.115514364247299e-11,2.4582212156631536e-10,1.0674049198063974e-10,4.99304267709489e-10,3.8076696925934865e-10,0.014325225589999824,-1.27433208397,-0.5499270078600003,0.7836991703999998,-1.1869639962100003,-1.2983154806100003
-49.475,2.898027603718798e-10,7.145425249803258e-11,2.4673909947041435e-10,1.0719819476089683e-10,5.010427161900554e-10,3.8213759976267733e-10,0.014325225589999824,-1.27433208397,-0.5499270078600003,-0.2163008296000002,0.8130360037899997,-1.2983154806100003
-49.425,2.9079325032494073e-10,7.175455533190719e-11,2.476592980355174e-10,1.0765775982991598e-10,5.027868378439635e-10,3.835128676006202e-10,1.01432522559,-1.27433208397,2.45007299214,-0.2163008296000002,-0.18696399621000026,-0.29831548061000035
-49.375,2.917869090955139e-10,7.205605663070894e-11,2.48582727784762e-10,1.0811919431296644e-10,5.045366497810572e-10,3.8489278733263687e-10,-0.9856747744100002,-1.27433208397,-0.5499270078600003,-0.2163008296000002,0.8130360037899997,-1.2983154806100003
-49.324999999999996,2.927837460347738e-10,7.235876089673207e-11,2.495093992726888e-10,1.0858250536064111e-10,5.062921691577931e-10,3.8627737355976355e-10,0.014325225589999824,0.7256679160299999,-0.5499270078600003,0.7836991703999998,-0.18696399621000026,-0.29831548061000035
-49.275,2.9378377051876455e-10,7.266267264799738e-11,2.504393230853469e-10,1.0904770014889509e-10,5.080534131773657e-10,3.876666409247066e-10,1.01432522559,-0.2743320839700001,0.45007299213999974,-0.2163008296000002,-1.1869639962100003,-1.2983154806100003
-49.225,2.94786991948448e-10,7.296779641829031e-11,2.5137250984032663e-10,1.0951478587916458e-10,5.098203990898312e-10,3.890606041120216e-10,0.014325225589999824,-1.27433208397,-1.5499270078600003,-1.2163008296000002,-0.18696399621000026,-1.2983154806100003
-49.175,2.957934197497066e-10,7.327413675722884e-11,2.523089701868929e-10,1.099837697784369e-10,5.115931441923357e-10,3.9045927784809663e-10,1.01432522559,-0.2743320839700001,-0.5499270078600003,-0.2163008296000002,-1.1869639962100003,-0.29831548061000035
-49.125,2.9680306337351766e-10,7.358169823030126e-11,2.532487148060511e-10,1.1045465909933284e-10,5.133716658288849e-10,3.918626769013677e-10,0.014325225589999824,-0.2743320839700001,0.45007299213999974,-0.2163008296000002,-0.18696399621000026,0.7016845193899997
-49.074999999999996,2.978159322959481e-10,7.38904854189226e-11,2.541917544106161e-10,1.1092746112019575e-10,5.15155981390839e-10,3.9327081608238035e-10,0.014325225589999824,0.7256679160299999,1.4500729921399997,0.7836991703999998,-1.1869639962100003,-0.29831548061000035
-49.025,2.98832036018225e-10,7.420050292048455e-11,2.5513809974530015e-10,1.1140218314511742e-10,5.169461083168665e-10,3.946837102438999e-10,4.0143252255899995,2.72566791603,-1.5499270078600003,-1.2163008296000002,-1.1869639962100003,1.7016845193899997
-48.975,2.998513840667205e-10,7.451175534840323e-11,2.56087761586818e-10,1.1187883250416666e-10,5.187420640929514e-10,3.961013742809986e-10,1.01432522559,0.7256679160299999,3.45007299214,-1.2163008296000002,-1.1869639962100003,0.7016845193899997
-48.925,3.008739859931283e-10,7.482424733217108e-11,2.570407507439535e-10,1.1235741655329565e-10,5.205438662527705e-10,3.9752382313119703e-10,0.014325225589999824,0.7256679160299999,1.4500729921399997,-0.2163008296000002,1.8130360037899997,-1.2983154806100003
-48.875,3.018998513744709e-10,7.51379835174165e-11,2.5799707805763657e-10,1.1283794267455024e-10,5.223515323774663e-10,3.9895107177452876e-10,0.014325225589999824,-1.27433208397,-0.5499270078600003,-0.2163008296000002,-1.1869639962100003,-1.2983154806100003
-48.824999999999996,3.0292898981314875e-10,7.545296856593468e-11,2.589567544010608e-10,1.1332041827609017e-10,5.241650800960396e-10,4.003831352336971e-10,0.014325225589999824,-1.27433208397,4.45007299214,-1.2163008296000002,-1.1869639962100003,0.7016845193899997
-48.775,3.039614109369471e-10,7.576920715576585e-11,2.599197906797204e-10,1.1380485079230529e-10,5.259845270853517e-10,4.018200285741253e-10,-0.9856747744100002,0.7256679160299999,-0.5499270078600003,-0.2163008296000002,1.8130360037899997,-1.2983154806100003
-48.725,3.0499712439923516e-10,7.608670398122145e-11,2.608861978315358e-10,1.1429124768386107e-10,5.278098910702289e-10,4.0326176690411716e-10,0.014325225589999824,-0.2743320839700001,1.4500729921399997,-0.2163008296000002,-0.18696399621000026,2.7016845193899997
-48.675,3.060361398788873e-10,7.640546375295411e-11,2.618559868269238e-10,1.1477961643784134e-10,5.296411898235385e-10,4.0470836537491573e-10,-0.9856747744100002,-0.2743320839700001,-0.5499270078600003,1.7836991703999998,0.8130360037899997,0.7016845193899997
-48.625,3.070784670804142e-10,7.672549119800187e-11,2.628291686688983e-10,1.1526996456778137e-10,5.31478441166474e-10,4.0615983918085346e-10,1.01432522559,0.7256679160299999,1.4500729921399997,-0.2163008296000002,-0.18696399621000026,0.7016845193899997
-48.574999999999996,3.081241157339655e-10,7.704679105983579e-11,2.638057543931034e-10,1.157622996137788e-10,5.333216629685193e-10,4.076162035594222e-10,-0.9856747744100002,0.7256679160299999,-0.5499270078600003,-1.2163008296000002,-1.1869639962100003,-0.29831548061000035
-48.525,3.0917309559544375e-10,7.736936809842176e-11,2.647857550679586e-10,1.1625662914256592e-10,5.351708731474324e-10,4.090774737914126e-10,1.01432522559,-1.27433208397,0.45007299213999974,-0.2163008296000002,0.8130360037899997,-1.2983154806100003
-48.475,3.1022541644657317e-10,7.769322709026568e-11,2.6576918179471865e-10,1.167529607476016e-10,5.370260896696996e-10,4.1054366520100194e-10,1.01432522559,1.72566791603,-1.5499270078600003,0.7836991703999998,0.8130360037899997,1.7016845193899997
-48.425,3.1128108809489193e-10,7.801837282846857e-11,2.6675604570757896e-10,1.1725130204918372e-10,5.388873305504459e-10,4.120147931558591e-10,1.01432522559,2.72566791603,-1.5499270078600003,3.7836991704,-0.18696399621000026,0.7016845193899997
-48.375,3.123401203738153e-10,7.834481012278176e-11,2.677463579737233e-10,1.1775166069446882e-10,5.40754613853465e-10,4.13490873067285e-10,0.014325225589999824,0.7256679160299999,0.45007299213999974,-0.2163008296000002,-1.1869639962100003,1.7016845193899997
-48.324999999999996,3.1340252314281383e-10,7.867254379964918e-11,2.687401297934414e-10,1.1825404435761806e-10,5.426279576915773e-10,4.14971920390263e-10,0.014325225589999824,1.72566791603,-1.5499270078600003,0.7836991703999998,-0.18696399621000026,0.7016845193899997
-48.275,3.1446830628730443e-10,7.900157870227271e-11,2.6973737240021867e-10,1.1875846073987723e-10,5.445073802264543e-10,4.1645795062363757e-10,-0.9856747744100002,-0.2743320839700001,0.45007299213999974,-1.2163008296000002,-1.1869639962100003,-1.2983154806100003
-48.225,3.1553747971883823e-10,7.933191969065872e-11,2.707380970607891e-10,1.1926491756961642e-10,5.463928996690556e-10,4.179489793101793e-10,-0.9856747744100002,-0.2743320839700001,-1.5499270078600003,-1.2163008296000002,0.8130360037899997,0.7016845193899997
-48.175,3.166100533750431e-10,7.966357164166976e-11,2.71742315075276e-10,1.1977342260247078e-10,5.482845342794438e-10,4.194450220366796e-10,1.01432522559,-0.2743320839700001,1.4500729921399997,-1.2163008296000002,-1.1869639962100003,-0.29831548061000035
-48.125,3.1768603721985445e-10,7.999653944908648e-11,2.727500377772212e-10,1.202839836214143e-10,5.501823023670929e-10,4.209460944341042e-10,-0.9856747744100002,1.72566791603,0.45007299213999974,-0.2163008296000002,-1.1869639962100003,3.7016845193899997
-48.074999999999996,3.1876544124338515e-10,8.03308280236474e-11,2.737612765337037e-10,1.2079660843683387e-10,5.520862222909022e-10,4.2245221217768836e-10,1.01432522559,0.7256679160299999,-1.5499270078600003,-1.2163008296000002,1.8130360037899997,-0.29831548061000035
-48.025,3.198482754621023e-10,8.066644229311426e-11,2.747760427454541e-10,1.2131130488660301e-10,5.539963124594304e-10,4.239633909870254e-10,-0.9856747744100002,-0.2743320839700001,0.45007299213999974,-0.2163008296000002,0.8130360037899997,-0.29831548061000035
-47.975,3.2093454991887395e-10,8.100338720231896e-11,2.7579434784684936e-10,1.2182808083623856e-10,5.559125913308537e-10,4.254796466262041e-10,-0.9856747744100002,0.7256679160299999,-1.5499270078600003,-1.2163008296000002,-1.1869639962100003,-0.29831548061000035
-47.925,3.2202427468296453e-10,8.134166771322026e-11,2.7681620330612103e-10,1.2234694417889954e-10,5.57835077413161e-10,4.2700099490389176e-10,0.014325225589999824,-0.2743320839700001,-0.5499270078600003,1.7836991703999998,-1.1869639962100003,-0.29831548061000035
-47.875,3.231174598501772e-10,8.168128880495891e-11,2.778416206253662e-10,1.2286790283550965e-10,5.59763789264301e-10,4.2852745167347797e-10,-0.9856747744100002,-1.27433208397,-0.5499270078600003,-1.2163008296000002,-1.1869639962100003,0.7016845193899997
-47.824999999999996,3.242141155428496e-10,8.202225547390832e-11,2.7887061134065873e-10,1.2339096475490187e-10,5.616987454922839e-10,4.300590328331554e-10,-0.9856747744100002,0.7256679160299999,-1.5499270078600003,-1.2163008296000002,0.8130360037899997,0.7016845193899997
-47.775,3.253142519100015e-10,8.236457273373115e-11,2.799031870221062e-10,1.2391613791380983e-10,5.636399647552503e-10,4.3159575432604234e-10,-0.9856747744100002,0.7256679160299999,-1.5499270078600003,0.7836991703999998,-1.1869639962100003,0.7016845193899997
-47.725,3.2641787912723327e-10,8.270824561543497e-11,2.8093935927401016e-10,1.2444343031702676e-10,5.655874657616273e-10,4.3313763214030347e-10,-0.9856747744100002,-0.2743320839700001,-0.5499270078600003,0.7836991703999998,1.8130360037899997,-0.29831548061000035
-47.675,3.2752500739698515e-10,8.305327916742035e-11,2.819791397348836e-10,1.2497284999747398e-10,5.675412672701906e-10,4.346846823092492e-10,-0.9856747744100002,0.7256679160299999,0.45007299213999974,-0.2163008296000002,3.8130360037899997,-0.29831548061000035
-47.625,3.286356469484495e-10,8.339967845554438e-11,2.830225400775675e-10,1.2550440501629774e-10,5.695013880903656e-10,4.3623692091142205e-10,0.014325225589999824,-1.27433208397,2.45007299214,-1.2163008296000002,0.8130360037899997,-1.2983154806100003
-47.574999999999996,3.2974980803770074e-10,8.374744856317096e-11,2.840695720093327e-10,1.2603810346293063e-10,5.714678470820803e-10,4.3779436407081727e-10,1.01432522559,-0.2743320839700001,-0.5499270078600003,0.7836991703999998,-1.1869639962100003,-0.29831548061000035
-47.525,3.3086750094772817e-10,8.40965945912246e-11,2.851202472719449e-10,1.2657395345522451e-10,5.734406631560438e-10,4.3935702795680596e-10,0.014325225589999824,-0.2743320839700001,0.45007299213999974,0.7836991703999998,0.8130360037899997,-0.29831548061000035
-47.475,3.319887359884919e-10,8.444712165825269e-11,2.8617457764179104e-10,1.2711196313950532e-10,5.754198552738405e-10,4.4092492878443307e-10,-0.9856747744100002,-0.2743320839700001,0.45007299213999974,-1.2163008296000002,-0.18696399621000026,1.7016845193899997
-47.425,3.331135234970257e-10,8.479903490046724e-11,2.8723257492989173e-10,1.2765214069069226e-10,5.774054424480719e-10,4.424980828144249e-10,-0.9856747744100002,1.72566791603,-1.5499270078600003,-1.2163008296000002,-1.1869639962100003,0.7016845193899997
-47.375,3.34241873837475e-10,8.515233947181402e-11,2.882942509821259e-10,1.2819449431235298e-10,5.793974437423788e-10,4.440765063533358e-10,1.01432522559,-0.2743320839700001,-1.5499270078600003,-0.2163008296000002,-1.1869639962100003,0.7016845193899997
-47.324999999999996,3.3537379740111026e-10,8.550704054402227e-11,2.893596176791703e-10,1.287390322368378e-10,5.813958782716896e-10,4.4566021575364236e-10,0.014325225589999824,-0.2743320839700001,-1.5499270078600003,-1.2163008296000002,-1.1869639962100003,0.7016845193899997
-47.275,3.365093046064781e-10,8.586314330666113e-11,2.904286869366667e-10,1.292857627253278e-10,5.834007652021912e-10,4.4724922741390074e-10,0.014325225589999824,0.7256679160299999,0.45007299213999974,-1.2163008296000002,1.8130360037899997,1.7016845193899997
-47.225,3.376484058993723e-10,8.622065296719622e-11,2.9150147070532606e-10,1.2983469406796288e-10,5.854121237516308e-10,4.4884355777880035e-10,-0.9856747744100002,1.72566791603,-0.5499270078600003,-1.2163008296000002,-0.18696399621000026,1.7016845193899997
-47.175,3.3879111175299565e-10,8.657957475104321e-11,2.925779809710145e-10,1.3038583458394884e-10,5.874299731892599e-10,4.504432233392834e-10,-0.9856747744100002,-1.27433208397,0.45007299213999974,-1.2163008296000002,-1.1869639962100003,-1.2983154806100003
-47.125,3.3993743266788675e-10,8.693991390162784e-11,2.936582297547995e-10,1.3093919262154593e-10,5.894543328360965e-10,4.520482406327607e-10,1.01432522559,-0.2743320839700001,0.45007299213999974,0.7836991703999998,-0.18696399621000026,-0.29831548061000035
-47.074999999999996,3.410873791721311e-10,8.730167568043685e-11,2.9474222911306124e-10,1.3149477655832434e-10,5.914852220648603e-10,4.53658626243064e-10,2.01432522559,0.7256679160299999,1.4500729921399997,-0.2163008296000002,0.8130360037899997,-0.29831548061000035
-47.025,3.4224096182128233e-10,8.766486536708424e-11,2.958299911376135e-10,1.3205259480107855e-10,5.935226603003689e-10,4.5527439680066384e-10,1.01432522559,1.72566791603,-0.5499270078600003,-0.2163008296000002,0.8130360037899997,-0.29831548061000035
-46.975,3.4339819119858437e-10,8.802948825935839e-11,2.9692152795578254e-10,1.3261265578606158e-10,5.955666670193483e-10,4.568955689828123e-10,0.014325225589999824,-1.27433208397,1.4500729921399997,-1.2163008296000002,-1.1869639962100003,-1.2983154806100003
-46.925,3.4455907791482883e-10,8.839554967328431e-11,2.9801685173045316e-10,1.3317496797902651e-10,5.976172617508219e-10,4.5852215951355296e-10,1.01432522559,-0.2743320839700001,1.4500729921399997,-1.2163008296000002,-1.1869639962100003,-1.2983154806100003
-46.875,3.457236326086121e-10,8.876305494317071e-11,2.9911597466024436e-10,1.3373953987531223e-10,5.996744640760286e-10,4.6015418516391803e-10,-0.9856747744100002,0.7256679160299999,2.45007299214,1.7836991703999998,2.8130360037899997,1.7016845193899997
-46.824999999999996,3.468918659462901e-10,8.913200942169366e-11,3.0021890897951775e-10,1.343063799999294e-10,6.017382936287133e-10,4.6179166275199683e-10,0.014325225589999824,-1.27433208397,-0.5499270078600003,-0.2163008296000002,-1.1869639962100003,0.7016845193899997
-46.775,3.4806378862207924e-10,8.950241847991356e-11,3.0132566695853705e-10,1.348754969076849e-10,6.038087700950781e-10,4.6343460914308476e-10,0.014325225589999824,-0.2743320839700001,4.45007299214,-1.2163008296000002,-1.1869639962100003,0.7016845193899997
-46.725,3.492394113580603e-10,8.987428750737249e-11,3.024362609035103e-10,1.3544689918328397e-10,6.058859132140139e-10,4.650830412497926e-10,0.014325225589999824,-0.2743320839700001,-0.5499270078600003,0.7836991703999998,-1.1869639962100003,-0.29831548061000035
-46.675,3.5041874490428446e-10,9.024762191212653e-11,3.035507031567075e-10,1.3602059544133257e-10,6.079697427772131e-10,4.667369760321586e-10,-0.9856747744100002,-0.2743320839700001,-1.5499270078600003,-1.2163008296000002,-0.18696399621000026,1.7016845193899997
-46.625,3.5160180003892056e-10,9.062242712080542e-11,3.046690060965502e-10,1.3659659432660925e-10,6.100602786292926e-10,4.683964304977056e-10,0.014325225589999824,1.72566791603,-1.5499270078600003,-1.2163008296000002,0.8130360037899997,-1.2983154806100003
-46.574999999999996,3.5278858756817394e-10,9.099870857869372e-11,3.0579118213772113e-10,1.3717490451392847e-10,6.121575406678372e-10,4.700614217017128e-10,1.01432522559,-1.27433208397,0.45007299213999974,-0.2163008296000002,-0.18696399621000026,1.7016845193899997
-46.525,3.5397911832637876e-10,9.137647174975285e-11,3.0691724373122363e-10,1.3775553470844482e-10,6.142615488436688e-10,4.717319667471403e-10,0.014325225589999824,-0.2743320839700001,-1.5499270078600003,2.7836991704,0.8130360037899997,-0.29831548061000035
-46.475,3.551734031761251e-10,9.175572211670779e-11,3.0804720336449663e-10,1.383384936456403e-10,6.163723231607696e-10,4.73408082784902e-10,1.01432522559,-0.2743320839700001,0.45007299213999974,-0.2163008296000002,-0.18696399621000026,-0.29831548061000035
-46.425,3.5637145300831835e-10,9.213646518109593e-11,3.091810735614734e-10,1.389237900914354e-10,6.184898836766394e-10,4.750897870138827e-10,-0.9856747744100002,-1.27433208397,1.4500729921399997,-0.2163008296000002,0.8130360037899997,0.7016845193899997
-46.375,3.575732787421558e-10,9.251870646332167e-11,3.103188668827718e-10,1.3951143284227706e-10,6.206142505021918e-10,4.767770966810989e-10,-0.9856747744100002,-0.2743320839700001,-1.5499270078600003,-0.2163008296000002,-0.18696399621000026,1.7016845193899997
-46.324999999999996,3.587788913252806e-10,9.290245150272575e-11,3.1146059592567476e-10,1.4010143072530662e-10,6.227454438020513e-10,4.784700290818297e-10,-0.9856747744100002,0.7256679160299999,1.4500729921399997,-1.2163008296000002,0.8130360037899997,0.7016845193899997
-46.275,3.5998830173375934e-10,9.328770585762973e-11,3.12606273324286e-10,1.4069379259836917e-10,6.248834837945549e-10,4.801686015597018e-10,0.014325225589999824,-0.2743320839700001,-1.5499270078600003,-1.2163008296000002,-1.1869639962100003,-0.29831548061000035
-46.225,3.612015209722822e-10,9.367447510540621e-11,3.137559117496067e-10,1.4128852735011833e-10,6.270283907519982e-10,4.818728315068056e-10,0.014325225589999824,-0.2743320839700001,-0.5499270078600003,1.7836991703999998,0.8130360037899997,0.7016845193899997
-46.175,3.6241856007408475e-10,9.406276484253889e-11,3.149095239096308e-10,1.4188564390019322e-10,6.291801850006181e-10,4.835827363638529e-10,-0.9856747744100002,4.72566791603,1.4500729921399997,3.7836991704,-0.18696399621000026,-0.29831548061000035
-46.125,3.6363943010105603e-10,9.445258068467065e-11,3.160671225494839e-10,1.4248515119917138e-10,6.313388869208677e-10,4.852983336202532e-10,0.014325225589999824,1.72566791603,-0.5499270078600003,-1.2163008296000002,-1.1869639962100003,-0.29831548061000035
-46.074999999999996,3.6486414214383926e-10,9.484392826667778e-11,3.172287204514073e-10,1.4308705822885163e-10,6.335045169472982e-10,4.870196408142639e-10,-0.9856747744100002,0.7256679160299999,0.45007299213999974,-1.2163008296000002,0.8130360037899997,0.7016845193899997
-46.025,3.660927073218852e-10,9.523681324271702e-11,3.1839433043498743e-10,1.4369137400219893e-10,6.356770955690611e-10,4.88746675533091e-10,0.014325225589999824,0.7256679160299999,-1.5499270078600003,-0.2163008296000002,1.8130360037899997,-0.29831548061000035
-45.975,3.6732513678344876e-10,9.563124128629294e-11,3.1956396535714346e-10,1.4429810756349878e-10,6.378566433296361e-10,4.904794554129822e-10,0.014325225589999824,0.7256679160299999,-0.5499270078600003,-0.2163008296000002,1.8130360037899997,1.7016845193899997
-45.925,3.6856144170571975e-10,9.602721809031857e-11,3.207376381123183e-10,1.4490726798849696e-10,6.400431808273179e-10,4.92217998139442e-10,0.014325225589999824,-0.2743320839700001,2.45007299214,0.7836991703999998,-1.1869639962100003,-0.29831548061000035
-45.875,3.698016332949353e-10,9.642474936716696e-11,3.219153616324791e-10,1.455188643844329e-10,6.422367287149149e-10,4.939623214472237e-10,-0.9856747744100002,1.72566791603,3.45007299214,-1.2163008296000002,1.8130360037899997,1.7016845193899997
-45.824999999999996,3.710457227862968e-10,9.682384084874096e-11,3.2309714888728163e-10,1.4613290589014654e-10,6.444373077003284e-10,4.957124431205356e-10,-0.9856747744100002,-1.27433208397,3.45007299214,-1.2163008296000002,-0.18696399621000026,-1.2983154806100003
-45.775,3.7229372144415523e-10,9.722449828653388e-11,3.242830128841439e-10,1.467494016761856e-10,6.466449385463961e-10,4.974683809931514e-10,-0.9856747744100002,-0.2743320839700001,0.45007299213999974,-0.2163008296000002,0.8130360037899997,0.7016845193899997
-45.725,3.73545640562065e-10,9.762672745167991e-11,3.2547296666832433e-10,1.473683609449972e-10,6.488596420711274e-10,4.992301529484949e-10,-0.9856747744100002,-0.2743320839700001,1.4500729921399997,-1.2163008296000002,0.8130360037899997,-1.2983154806100003
-45.675,3.74801491462764e-10,9.8030534135031e-11,3.26667023323046e-10,1.4798979293083591e-10,6.510814391476827e-10,5.009977769197925e-10,0.014325225589999824,-1.27433208397,-1.5499270078600003,-0.2163008296000002,-0.18696399621000026,-0.29831548061000035
-45.625,3.7606128549833375e-10,9.84359241471975e-11,3.2786519596960785e-10,1.4861370690002208e-10,6.53310350704738e-10,5.027712708901587e-10,2.01432522559,0.7256679160299999,-0.5499270078600003,-1.2163008296000002,-0.18696399621000026,-1.2983154806100003
-45.574999999999996,3.773250340502428e-10,9.884290331862919e-11,3.2906749776744006e-10,1.4924011215099242e-10,6.555463977264558e-10,5.045506528928059e-10,0.014325225589999824,-0.2743320839700001,0.45007299213999974,-1.2163008296000002,-1.1869639962100003,0.7016845193899997
-45.525,3.7859274852929937e-10,9.925147749966604e-11,3.3027394191419645e-10,1.4986901801441774e-10,6.577896012525079e-10,5.063359410110122e-10,2.01432522559,-1.27433208397,-1.5499270078600003,1.7836991703999998,-1.1869639962100003,-1.2983154806100003
-45.475,3.7986444037600084e-10,9.966165256059976e-11,3.3148454164591285e-10,1.505004338532699e-10,6.600399823785375e-10,5.081271533784221e-10,0.014325225589999824,0.7256679160299999,3.45007299214,-1.2163008296000002,0.8130360037899997,-1.2983154806100003
-45.425,3.8114012106019554e-10,1.000734343917441e-10,3.3269931023706306e-10,1.5113436906292284e-10,6.622975622559236e-10,5.099243081790106e-10,-0.9856747744100002,-0.2743320839700001,0.45007299213999974,-0.2163008296000002,-0.18696399621000026,-1.2983154806100003
-45.375,3.82419802081503e-10,1.0048682890348318e-10,3.3391826100060934e-10,1.5177083307127936e-10,6.645623620921596e-10,5.117274236473013e-10,-0.9856747744100002,-1.27433208397,0.45007299213999974,0.7836991703999998,-0.18696399621000026,-1.2983154806100003
-45.324999999999996,3.837034949691914e-10,1.0090184202633917e-10,3.351414072882615e-10,1.5240983533887326e-10,6.668344031509065e-10,5.135365180684571e-10,-0.9856747744100002,0.7256679160299999,-1.5499270078600003,-1.2163008296000002,0.8130360037899997,0.7016845193899997
-45.275,3.8499121128235054e-10,1.0131847971104752e-10,3.363687624903334e-10,1.5305138535899775e-10,6.691137067519126e-10,5.153516097784062e-10,2.01432522559,1.72566791603,-0.5499270078600003,1.7836991703999998,-0.18696399621000026,-0.29831548061000035
-45.225,3.862829626097839e-10,1.017367479285949e-10,3.376003400360984e-10,1.5369549265767702e-10,6.71400294271557e-10,5.17172717163979e-10,1.01432522559,1.72566791603,-1.5499270078600003,-1.2163008296000002,-1.1869639962100003,-0.29831548061000035
-45.175,3.875787605702479e-10,1.021566526703034e-10,3.388361533936545e-10,1.5434216679397777e-10,6.736941871426188e-10,5.189998586629986e-10,0.014325225589999824,-1.27433208397,-1.5499270078600003,-0.2163008296000002,-0.18696399621000026,4.70168451939
-45.125,3.8887861681251323e-10,1.0257819994787934e-10,3.400762160702143e-10,1.5499141735988538e-10,6.759954068546229e-10,5.208330527644444e-10,0.014325225589999824,-0.2743320839700001,-1.5499270078600003,-1.2163008296000002,-0.18696399621000026,-1.2983154806100003
-45.074999999999996,3.9018254301531e-10,1.0300139579348518e-10,3.4132054161208965e-10,1.5564325398063446e-10,6.783039749537689e-10,5.226723180084861e-10,-0.9856747744100002,1.72566791603,0.45007299213999974,-0.2163008296000002,-1.1869639962100003,0.7016845193899997
-45.025,3.9149055088743103e-10,1.034262462598009e-10,3.425691436048293e-10,1.5629768631461945e-10,6.806199130433475e-10,5.245176729867712e-10,1.01432522559,-1.27433208397,-1.5499270078600003,-0.2163008296000002,-1.1869639962100003,-0.29831548061000035
-44.975,3.9280265216791527e-10,1.0385275742007568e-10,3.438220356733038e-10,1.569547240536125e-10,6.829432427835325e-10,5.263691363423661e-10,0.014325225589999824,-1.27433208397,0.45007299213999974,-0.2163008296000002,-0.18696399621000026,1.7016845193899997
-44.925,3.9411885862596405e-10,1.0428093536820873e-10,3.450792314818349e-10,1.5761437692282343e-10,6.852739858916928e-10,5.282267267700376e-10,0.014325225589999824,-1.27433208397,0.45007299213999974,-0.2163008296000002,1.8130360037899997,2.7016845193899997
-44.875,3.954391820610961e-10,1.0471078621880496e-10,3.4634074473425114e-10,1.58276654680959e-10,6.876121641426099e-10,5.300904630162609e-10,-0.9856747744100002,-1.27433208397,-0.5499270078600003,1.7836991703999998,-0.18696399621000026,0.7016845193899997
-44.824999999999996,3.967636343031582e-10,1.0514231610723044e-10,3.476065891740673e-10,1.589415671205339e-10,6.899577993684236e-10,5.319603638794078e-10,-0.9856747744100002,-0.2743320839700001,0.45007299213999974,1.7836991703999998,-0.18696399621000026,-0.29831548061000035
-44.775,3.98092227212414e-10,1.0557553118970092e-10,3.4887677858444645e-10,1.5960912406760688e-10,6.92310913458799e-10,5.338364482098458e-10,1.01432522559,-0.2743320839700001,-0.5499270078600003,-0.2163008296000002,-0.18696399621000026,-0.29831548061000035
-44.725,3.994249726796843e-10,1.0601043764331165e-10,3.501513267884435e-10,1.6027933538229142e-10,6.946715283612744e-10,5.357187349100703e-10,1.01432522559,-0.2743320839700001,0.45007299213999974,0.7836991703999998,-0.18696399621000026,-0.29831548061000035
-44.675,4.007618826262893e-10,1.0644704166612769e-10,3.5143024764901774e-10,1.6095221095859045e-10,6.970396660809575e-10,5.376072429348337e-10,4.0143252255899995,-0.2743320839700001,-1.5499270078600003,1.7836991703999998,1.8130360037899997,0.7016845193899997
-44.625,4.021029690041382e-10,1.0688534947724475e-10,3.527135550691979e-10,1.616277607245741e-10,6.994153486810904e-10,5.395019912912551e-10,0.014325225589999824,0.7256679160299999,-1.5499270078600003,-0.2163008296000002,-0.18696399621000026,-1.2983154806100003
-44.574999999999996,4.0344824379591503e-10,1.0732536731683858e-10,3.5400126299213375e-10,1.6230599464252209e-10,7.017985982829626e-10,5.414029990389749e-10,0.014325225589999824,-1.27433208397,-0.5499270078600003,-1.2163008296000002,-1.1869639962100003,-0.29831548061000035
-44.525,4.0479771901502116e-10,1.077671014462533e-10,3.5529338540119806e-10,1.6298692270897505e-10,7.04189437066103e-10,5.433102852902671e-10,-0.9856747744100002,-0.2743320839700001,1.4500729921399997,-1.2163008296000002,0.8130360037899997,0.7016845193899997
-44.475,4.061514067056651e-10,1.0821055814803976e-10,3.5658993632010734e-10,1.6367055495489646e-10,7.065878872682694e-10,5.452238692101435e-10,-0.9856747744100002,-1.27433208397,-0.5499270078600003,-1.2163008296000002,-0.18696399621000026,-0.29831548061000035
-44.425,4.0750931894295194e-10,1.0865574372604189e-10,3.578909298130348e-10,1.6435690144573328e-10,7.089939711859316e-10,5.47143770016519e-10,0.014325225589999824,-0.2743320839700001,3.45007299214,-0.2163008296000002,0.8130360037899997,0.7016845193899997
-44.375,4.0887146783298086e-10,1.0910266450545761e-10,3.591963799846607e-10,1.6504597228157873e-10,7.114077111739517e-10,5.490700069803033e-10,0.014325225589999824,-1.27433208397,1.4500729921399997,1.7836991703999998,0.8130360037899997,-0.29831548061000035
-44.324999999999996,4.102378655128481e-10,1.0955132683289342e-10,3.6050630098037274e-10,1.6573777759713953e-10,7.138291296460074e-10,5.51002599425547e-10,1.01432522559,-0.2743320839700001,1.4500729921399997,-1.2163008296000002,-1.1869639962100003,2.7016845193899997
-44.275,4.1160852415072693e-10,1.1000173707644305e-10,3.6182070698625e-10,1.6643232756209657e-10,7.162582490746728e-10,5.529415667295813e-10,1.01432522559,-0.2743320839700001,-0.5499270078600003,0.7836991703999998,0.8130360037899997,-0.29831548061000035
-44.225,4.129834559460104e-10,1.1045390162574741e-10,3.631396122292535e-10,1.671296323809597e-10,7.186950919915935e-10,5.548869283230973e-10,-0.9856747744100002,-1.27433208397,2.45007299214,-0.2163008296000002,-0.18696399621000026,-1.2983154806100003
-44.175,4.143626731292571e-10,1.1090782689205637e-10,3.644630309772772e-10,1.678297022932977e-10,7.211396809874453e-10,5.568387036903262e-10,0.014325225589999824,0.7256679160299999,0.45007299213999974,-1.2163008296000002,0.8130360037899997,1.7016845193899997
-44.125,4.1574618796235225e-10,1.1136351930831155e-10,3.657909775392665e-10,1.685325475738379e-10,7.235920387121788e-10,5.587969123691905e-10,0.014325225589999824,-1.27433208397,1.4500729921399997,-0.2163008296000002,-0.18696399621000026,1.7016845193899997
-44.074999999999996,4.1713401273858275e-10,1.1182098532918588e-10,3.67123466265395e-10,1.6923817853257504e-10,7.260521878752451e-10,5.60761573951273e-10,0.014325225589999824,-1.27433208397,2.45007299214,-1.2163008296000002,0.8130360037899997,0.7016845193899997
-44.025,4.1852615978254446e-10,1.1228023143117539e-10,3.6846051154699596e-10,1.6994660551484178e-10,7.285201512455544e-10,5.627327080821929e-10,-0.9856747744100002,-1.27433208397,0.45007299213999974,-1.2163008296000002,-0.18696399621000026,1.7016845193899997
-43.975,4.199226414505019e-10,1.1274126411265487e-10,3.6980212781686407e-10,1.7065783890145684e-10,7.309959516517959e-10,5.647103344615023e-10,0.014325225589999824,0.7256679160299999,-0.5499270078600003,0.7836991703999998,-0.18696399621000026,-0.29831548061000035
-43.925,4.2132347013020707e-10,1.1320408989393423e-10,3.711483295491714e-10,1.7137188910888323e-10,7.334796119823432e-10,5.666944728429674e-10,0.014325225589999824,-0.2743320839700001,0.45007299213999974,0.7836991703999998,-1.1869639962100003,-0.29831548061000035
-43.875,4.227286582410092e-10,1.1366871531736018e-10,3.7249913125976553e-10,1.720887665891537e-10,7.359711551855751e-10,5.686851430346339e-10,-0.9856747744100002,-1.27433208397,-1.5499270078600003,-1.2163008296000002,-0.18696399621000026,0.7016845193899997
-43.824999999999996,4.2413821823407287e-10,1.1413514694733517e-10,3.738545475061112e-10,1.7280848183022403e-10,7.384706042699898e-10,5.706823648989721e-10,-0.9856747744100002,-0.2743320839700001,-1.5499270078600003,2.7836991704,-1.1869639962100003,-1.2983154806100003
-43.775,4.255521625922377e-10,1.1460339137042506e-10,3.7521459288747934e-10,1.7353104535593814e-10,7.409779823041711e-10,5.726861583530028e-10,-0.9856747744100002,0.7256679160299999,-1.5499270078600003,0.7836991703999998,-1.1869639962100003,-1.2983154806100003
-43.725,4.269705038302302e-10,1.1507345519540497e-10,3.76579282045009e-10,1.7425646772612854e-10,7.434933124171649e-10,5.746965433684109e-10,-0.9856747744100002,-0.2743320839700001,1.4500729921399997,-1.2163008296000002,-0.18696399621000026,0.7016845193899997
-43.675,4.2839325449472187e-10,1.1554534505333752e-10,3.779486296618767e-10,1.7498475953681583e-10,7.460166177984774e-10,5.767135399716953e-10,2.01432522559,-0.2743320839700001,1.4500729921399997,-0.2163008296000002,0.8130360037899997,0.7016845193899997
-43.625,4.2982042716426436e-10,1.1601906759763525e-10,3.793226504632893e-10,1.7571593142025195e-10,7.485479216981678e-10,5.787371682443294e-10,-0.9856747744100002,-0.2743320839700001,2.45007299214,-0.2163008296000002,0.8130360037899997,1.7016845193899997
-43.574999999999996,4.312520344496139e-10,1.1649462950412844e-10,3.807013592167561e-10,1.7644999404502102e-10,7.510872474271534e-10,5.807674483228205e-10,-0.9856747744100002,-0.2743320839700001,0.45007299213999974,-1.2163008296000002,-1.1869639962100003,0.7016845193899997
-43.525,4.3268808899352086e-10,1.1697203747113446e-10,3.8208477073200034e-10,1.7718695811623144e-10,7.536346183571329e-10,5.828044003988746e-10,0.014325225589999824,-1.27433208397,-1.5499270078600003,-1.2163008296000002,-0.18696399621000026,0.7016845193899997
-43.475,4.341286034709878e-10,1.174512982195371e-10,3.8347289986124905e-10,1.7792683437554863e-10,7.561900579209025e-10,5.848480447195931e-10,0.014325225589999824,0.7256679160299999,0.45007299213999974,0.7836991703999998,-1.1869639962100003,0.7016845193899997
-43.425,4.355735905892849e-10,1.1793241849283096e-10,3.848657614991545e-10,1.7866963360133738e-10,7.587535896123217e-10,5.868984015874598e-10,-0.9856747744100002,-1.27433208397,0.45007299213999974,-1.2163008296000002,-0.18696399621000026,-1.2983154806100003
-43.375,4.370230630879755e-10,1.1841540505721295e-10,3.862633705830967e-10,1.7941536660879535e-10,7.613252369867397e-10,5.889554913606091e-10,3.01432522559,-0.2743320839700001,0.45007299213999974,0.7836991703999998,-1.1869639962100003,0.7016845193899997
-43.324999999999996,4.38477033739048e-10,1.1890026470164452e-10,3.876657420931316e-10,1.8016404425003577e-10,7.639050236607005e-10,5.910193344528744e-10,1.01432522559,1.72566791603,-0.5499270078600003,-0.2163008296000002,-0.18696399621000026,1.7016845193899997
-43.275,4.399355153468798e-10,1.1938700423791003e-10,3.890728910521852e-10,1.8091567741421145e-10,7.664929733124682e-10,5.930899513339756e-10,0.014325225589999824,0.7256679160299999,-0.5499270078600003,-1.2163008296000002,0.8130360037899997,-0.29831548061000035
-43.225,4.413985207486008e-10,1.1987563050070726e-10,3.904848325261173e-10,1.8167027702759754e-10,7.690891096820581e-10,5.951673625296082e-10,1.01432522559,-1.27433208397,3.45007299214,-1.2163008296000002,-0.18696399621000026,-0.29831548061000035
-43.175,4.428660628137198e-10,1.2036615034769408e-10,3.919015816238439e-10,1.824278540538087e-10,7.716934565711205e-10,5.972515886215895e-10,0.014325225589999824,1.72566791603,-1.5499270078600003,1.7836991703999998,0.8130360037899997,-1.2983154806100003
-43.125,4.443381544445198e-10,1.2085857065957867e-10,3.9332315349744605e-10,1.8318841949375888e-10,7.743060378434399e-10,5.993426502480291e-10,0.014325225589999824,0.7256679160299999,-0.5499270078600003,-0.2163008296000002,2.8130360037899997,0.7016845193899997
-43.074999999999996,4.4581480857607233e-10,1.2135289834017664e-10,3.947495633423153e-10,1.83951984385921e-10,7.769268774249411e-10,6.014405681033732e-10,1.01432522559,-0.2743320839700001,-0.5499270078600003,-0.2163008296000002,0.8130360037899997,-0.29831548061000035
-43.025,4.4729603817622617e-10,1.2184914031647855e-10,3.9618082639716195e-10,1.8471855980633813e-10,7.795559993036958e-10,6.03545362938674e-10,1.01432522559,0.7256679160299999,-0.5499270078600003,-0.2163008296000002,-0.18696399621000026,-1.2983154806100003
-42.975,4.487818562456832e-10,1.2234730353874014e-10,3.976169579442234e-10,1.8548815686882235e-10,7.821934275303027e-10,6.056570555615357e-10,1.01432522559,-1.27433208397,-1.5499270078600003,-1.2163008296000002,0.8130360037899997,0.7016845193899997
-42.925,4.5027227581819695e-10,1.2284739498052426e-10,3.990579733093273e-10,1.8626078672497623e-10,7.848391862177051e-10,6.077756668364406e-10,-0.9856747744100002,1.72566791603,1.4500729921399997,0.7836991703999998,4.81303600379,-1.2983154806100003
-42.875,4.517673099604453e-10,1.23349421638794e-10,4.0050388786197213e-10,1.870364605644138e-10,7.874932995417626e-10,6.099012176847329e-10,3.01432522559,-1.27433208397,-1.5499270078600003,-1.2163008296000002,-0.18696399621000026,-0.29831548061000035
-42.824999999999996,4.5326697177238317e-10,1.2385339053397776e-10,4.0195471701553776e-10,1.8781518961480355e-10,7.901557917409332e-10,6.120337290849092e-10,2.01432522559,3.72566791603,-0.5499270078600003,2.7836991704,2.8130360037899997,-1.2983154806100003
-42.775,4.5477127438693495e-10,1.243593087100312e-10,4.034104762272466e-10,1.8859698514199502e-10,7.928266871167597e-10,6.141732220725919e-10,1.01432522559,-0.2743320839700001,-1.5499270078600003,0.7836991703999998,-1.1869639962100003,-0.29831548061000035
-42.725,4.562802309703934e-10,1.248671832345273e-10,4.048711809984554e-10,1.893818584501465e-10,7.955060100337607e-10,6.163197177407345e-10,0.014325225589999824,-0.2743320839700001,0.45007299213999974,-0.2163008296000002,-0.18696399621000026,2.7016845193899997
-42.675,4.5779385472235516e-10,1.2537702119870022e-10,4.063368468745469e-10,1.9016982088186366e-10,7.981937849198416e-10,6.184732372397863e-10,-0.9856747744100002,-0.2743320839700001,-1.5499270078600003,-0.2163008296000002,0.8130360037899997,-0.29831548061000035
-42.625,4.593121588758063e-10,1.2588882971754346e-10,4.0780748944520577e-10,1.909608838182744e-10,8.008900362660723e-10,6.20633801777745e-10,1.01432522559,0.7256679160299999,-1.5499270078600003,-0.2163008296000002,-0.18696399621000026,2.7016845193899997
-42.574999999999996,4.60835156697127e-10,1.2640261592987564e-10,4.0928312434449987e-10,1.9175505867917866e-10,8.035947886272243e-10,6.228014326204374e-10,-0.9856747744100002,-0.2743320839700001,-1.5499270078600003,-0.2163008296000002,-1.1869639962100003,0.7016845193899997
-42.525,4.623628614863074e-10,1.2691838699839449e-10,4.1076376725094984e-10,1.9255235692315614e-10,8.063080666215578e-10,6.249761510914528e-10,-0.9856747744100002,-0.2743320839700001,1.4500729921399997,-0.2163008296000002,0.8130360037899997,3.7016845193899997
-42.475,4.6389528657692177e-10,1.2743615010977334e-10,4.1224943388763343e-10,1.9335279004767358e-10,8.090298949312595e-10,6.271579785725082e-10,-0.9856747744100002,-1.27433208397,-1.5499270078600003,-1.2163008296000002,-1.1869639962100003,-0.29831548061000035
-42.425,4.654324453362253e-10,1.2795591247472082e-10,4.137401400223482e-10,1.9415636958922543e-10,8.117602983023314e-10,6.293469365033506e-10,1.01432522559,-1.27433208397,-1.5499270078600003,0.7836991703999998,-0.18696399621000026,0.7016845193899997
-42.375,4.669743511651478e-10,1.2847768132804712e-10,4.152359014676576e-10,1.9496310712344224e-10,8.14499301544961e-10,6.315430463820661e-10,-0.9856747744100002,0.7256679160299999,-0.5499270078600003,1.7836991703999998,-0.18696399621000026,1.7016845193899997
-42.324999999999996,4.685210174985501e-10,1.290014639287594e-10,4.167367340811263e-10,1.9577301426520983e-10,8.17246929533398e-10,6.337463297651639e-10,0.014325225589999824,1.72566791603,0.45007299213999974,-0.2163008296000002,0.8130360037899997,1.7016845193899997
-42.275,4.700724578051246e-10,1.2952726756010656e-10,4.182426537652001e-10,1.9658610266878915e-10,8.200032072063956e-10,6.359568082677002e-10,1.01432522559,0.7256679160299999,1.4500729921399997,0.7836991703999998,0.8130360037899997,-1.2983154806100003
-42.225,4.716286855875403e-10,1.3005509952967434e-10,4.1975367646760194e-10,1.9740238402793641e-10,8.227681595670863e-10,6.381745035634237e-10,-0.9856747744100002,-0.2743320839700001,0.45007299213999974,2.7836991704,-0.18696399621000026,-0.29831548061000035
-42.175,4.731897143824613e-10,1.3058496716944933e-10,4.2126981818119983e-10,1.9822187007600057e-10,8.255418116833793e-10,6.403994373849007e-10,-0.9856747744100002,0.7256679160299999,0.45007299213999974,-0.2163008296000002,-0.18696399621000026,-0.29831548061000035
-42.125,4.747555577606795e-10,1.3111687783588706e-10,4.2279109494423744e-10,1.990445725861232e-10,8.283241886877994e-10,6.426316315236926e-10,0.014325225589999824,0.7256679160299999,1.4500729921399997,-0.2163008296000002,-1.1869639962100003,-1.2983154806100003
-42.074999999999996,4.763262293272352e-10,1.3165083891000425e-10,4.243175228405003e-10,1.9987050337120106e-10,8.311153157779334e-10,6.448711078304271e-10,1.01432522559,0.7256679160299999,-1.5499270078600003,-0.2163008296000002,1.8130360037899997,1.7016845193899997
-42.025,4.779017427213474e-10,1.3218685779742853e-10,4.258491179992782e-10,2.0069967428426824e-10,8.339152182162908e-10,6.471178882150357e-10,0.014325225589999824,-0.2743320839700001,-1.5499270078600003,-0.2163008296000002,-0.18696399621000026,0.7016845193899997
-41.975,4.794821116165678e-10,1.3272494192849006e-10,4.2738589659558567e-10,2.0153209721827677e-10,8.367239213306826e-10,6.493719946467836e-10,0.014325225589999824,2.72566791603,-1.5499270078600003,-0.2163008296000002,0.8130360037899997,0.7016845193899997
-41.925,4.810673497208609e-10,1.3326509875829332e-10,4.2892787485024426e-10,2.023677841065374e-10,8.395414505142929e-10,6.51633449154477e-10,-0.9856747744100002,1.72566791603,-1.5499270078600003,0.7836991703999998,-1.1869639962100003,-0.29831548061000035
-41.875,4.826574707766833e-10,1.338073357667829e-10,4.3047506902995925e-10,2.0320674692264802e-10,8.423678312257283e-10,6.539022738265787e-10,0.014325225589999824,-0.2743320839700001,-1.5499270078600003,-1.2163008296000002,1.8130360037899997,-0.29831548061000035
-41.824999999999996,4.842524885609955e-10,1.3435166045883148e-10,4.320274954475419e-10,2.0404899768067322e-10,8.452030889892922e-10,6.561784908113765e-10,-0.9856747744100002,0.7256679160299999,0.45007299213999974,-1.2163008296000002,-0.18696399621000026,0.7016845193899997
-41.775,4.858524168853902e-10,1.3489808036429396e-10,4.335851704619015e-10,2.048945484352901e-10,8.480472493950197e-10,6.584621223170519e-10,0.014325225589999824,-0.2743320839700001,-0.5499270078600003,-0.2163008296000002,-0.18696399621000026,-1.2983154806100003
-41.725,4.874572695961724e-10,1.3544660303810875e-10,4.3514811047819497e-10,2.057434112818658e-10,8.509003380987984e-10,6.607531906119136e-10,-0.9856747744100002,-1.27433208397,-1.5499270078600003,-1.2163008296000002,-0.18696399621000026,3.7016845193899997
-41.675,4.890670605744052e-10,1.3599723606035823e-10,4.367163319479895e-10,2.0659559835661513e-10,8.53762380822838e-10,6.63051718024464e-10,0.014325225589999824,-0.2743320839700001,0.45007299213999974,-0.2163008296000002,-1.1869639962100003,-1.2983154806100003
-41.625,4.906818037359417e-10,1.3654998703633818e-10,4.382898513693155e-10,2.0745112183667798e-10,8.566334033552957e-10,6.653577269435844e-10,1.01432522559,-0.2743320839700001,-1.5499270078600003,-1.2163008296000002,0.8130360037899997,-0.29831548061000035
-41.574999999999996,4.92301513031652e-10,1.371048635966479e-10,4.398686852868178e-10,2.0830999394040824e-10,8.595134315508446e-10,6.676712398186444e-10,1.01432522559,-0.2743320839700001,-0.5499270078600003,-0.2163008296000002,-0.18696399621000026,-1.2983154806100003
-41.525,4.939262024473161e-10,1.376618733972603e-10,4.4145285029183846e-10,2.091722269271443e-10,8.62402491330538e-10,6.699922791596331e-10,1.01432522559,-0.2743320839700001,-1.5499270078600003,1.7836991703999998,-0.18696399621000026,0.7016845193899997
-41.475,4.955558860037314e-10,1.3822102411958714e-10,4.430423630226138e-10,2.1003783309779492e-10,8.653006086822492e-10,6.723208675374083e-10,0.014325225589999824,0.7256679160299999,1.4500729921399997,-0.2163008296000002,-1.1869639962100003,-0.29831548061000035
-41.425,4.971905777569632e-10,1.3878232347058074e-10,4.4463724016421855e-10,2.1090682479454979e-10,8.682078096603874e-10,6.746570275836589e-10,0.014325225589999824,2.72566791603,-1.5499270078600003,-0.2163008296000002,-0.18696399621000026,-0.29831548061000035
-41.375,4.988302917980874e-10,1.3934577918278103e-10,4.4623749844886433e-10,2.1177921440127787e-10,8.711241203866199e-10,6.770007819911738e-10,1.01432522559,3.72566791603,-1.5499270078600003,-0.2163008296000002,-1.1869639962100003,-0.29831548061000035
-41.324999999999996,5.004750422537174e-10,1.3991139901441073e-10,4.478431546559386e-10,2.126550143435226e-10,8.74049567049404e-10,6.793521535139752e-10,-0.9856747744100002,0.7256679160299999,-1.5499270078600003,-0.2163008296000002,-0.18696399621000026,0.7016845193899997
-41.275,5.021248432856178e-10,1.404791907494543e-10,4.494542256120955e-10,2.1353423708867528e-10,8.769841759046507e-10,6.817111649674077e-10,1.01432522559,5.72566791603,-1.5499270078600003,-1.2163008296000002,-1.1869639962100003,-1.2983154806100003
-41.225,5.037797090910771e-10,1.410491621977091e-10,4.5107072819140327e-10,2.1441689514606577e-10,8.799279732754993e-10,6.840778392283292e-10,0.014325225589999824,-1.27433208397,0.45007299213999974,0.7836991703999998,0.8130360037899997,-0.29831548061000035
-41.175,5.054396539028547e-10,1.4162132119491142e-10,4.5269267931545977e-10,2.1530300106718618e-10,8.828809855527131e-10,6.864521992352046e-10,2.01432522559,0.7256679160299999,3.45007299214,-0.2163008296000002,-1.1869639962100003,0.7016845193899997
-41.125,5.071046919893402e-10,1.4219567560275284e-10,4.543200959534959e-10,2.1619256744568462e-10,8.858432391946136e-10,6.888342679883082e-10,1.01432522559,0.7256679160299999,-0.5499270078600003,0.7836991703999998,-1.1869639962100003,0.7016845193899997
-41.074999999999996,5.087748376544785e-10,1.4277223330900418e-10,4.55952995122493e-10,2.1708560691751598e-10,8.888147607274912e-10,6.912240685498459e-10,1.01432522559,-1.27433208397,3.45007299214,0.7836991703999998,-0.18696399621000026,-1.2983154806100003
-41.025,5.104501052380459e-10,1.4335100222758615e-10,4.57591393887311e-10,2.1798213216118015e-10,8.917955767454759e-10,6.936216240440763e-10,-0.9856747744100002,-1.27433208397,-1.5499270078600003,-1.2163008296000002,-1.1869639962100003,0.7016845193899997
-40.975,5.121305091155735e-10,1.4393199029862007e-10,4.5923530936084525e-10,2.1888215589775252e-10,8.94785713910886e-10,6.960269576574078e-10,-0.9856747744100002,0.7256679160299999,0.45007299213999974,-0.2163008296000002,-1.1869639962100003,-0.29831548061000035
-40.925,5.138160636985612e-10,1.4451520548853956e-10,4.608847587040006e-10,2.1978569089104912e-10,8.977851989541742e-10,6.984400926387417e-10,0.014325225589999824,0.7256679160299999,-0.5499270078600003,0.7836991703999998,-0.18696399621000026,-0.29831548061000035
-40.875,5.155067834342824e-10,1.4510065579015075e-10,4.625397591259511e-10,2.2069274994769286e-10,9.007940586744939e-10,7.008610522993238e-10,0.014325225589999824,1.72566791603,-1.5499270078600003,-1.2163008296000002,-0.18696399621000026,-1.2983154806100003
-40.824999999999996,5.172026828062096e-10,1.4568834922271276e-10,4.64200327884285e-10,2.2160334591730455e-10,9.038123199391222e-10,7.032898600131371e-10,-0.9856747744100002,-0.2743320839700001,-0.5499270078600003,-1.2163008296000002,-0.18696399621000026,-0.29831548061000035
-40.775,5.189037763338496e-10,1.462782938320249e-10,4.658664822849582e-10,2.2251749169273417e-10,9.068400096844638e-10,7.057265392169372e-10,-0.9856747744100002,-0.2743320839700001,-0.5499270078600003,-0.2163008296000002,-0.18696399621000026,-0.29831548061000035
-40.725,5.206100785729434e-10,1.4687049769049328e-10,4.675382396825241e-10,2.234352002099127e-10,9.098771549154952e-10,7.081711134103921e-10,3.01432522559,-0.2743320839700001,-0.5499270078600003,-1.2163008296000002,-0.18696399621000026,-0.29831548061000035
-40.675,5.223216041154088e-10,1.474649688972151e-10,4.692156174802445e-10,2.2435648444827298e-10,9.129237827063255e-10,7.106236061562781e-10,-0.9856747744100002,1.72566791603,0.45007299213999974,0.7836991703999998,0.8130360037899997,-1.2983154806100003
-40.625,5.240383675895283e-10,1.4806171557807284e-10,4.708986331302095e-10,2.2528135743063883e-10,9.159799202001759e-10,7.13084041080555e-10,1.01432522559,-1.27433208397,-1.5499270078600003,3.7836991704,-1.1869639962100003,-0.29831548061000035
-40.574999999999996,5.257603836600454e-10,1.4866074588577611e-10,4.725873041333749e-10,2.2620983222358526e-10,9.190455946096757e-10,7.155524418725969e-10,-0.9856747744100002,-0.2743320839700001,-0.5499270078600003,0.7836991703999998,-1.1869639962100003,1.7016845193899997
-40.525,5.274876670281685e-10,1.4926206799999084e-10,4.742816480398559e-10,2.2714192193735202e-10,9.221208332166046e-10,7.180288322852271e-10,1.01432522559,-0.2743320839700001,0.45007299213999974,-1.2163008296000002,-0.18696399621000026,-0.29831548061000035
-40.475,5.29220232431609e-10,1.4986569012737835e-10,4.75981682448858e-10,2.2807763972615494e-10,9.252056633726829e-10,7.205132361350279e-10,-0.9856747744100002,-0.2743320839700001,0.45007299213999974,0.7836991703999998,-1.1869639962100003,-0.29831548061000035
-40.425,5.309580946447689e-10,1.5047162050169657e-10,4.776874250089044e-10,2.2901699878817541e-10,9.283001124992532e-10,7.230056773022875e-10,-0.9856747744100002,0.7256679160299999,-0.5499270078600003,-0.2163008296000002,-0.18696399621000026,-1.2983154806100003
-40.375,5.327012684787885e-10,1.5107986738387748e-10,4.793988934179012e-10,2.2996001236586173e-10,9.314042080875066e-10,7.255061797313466e-10,2.01432522559,-0.2743320839700001,0.45007299213999974,-0.2163008296000002,-0.18696399621000026,-0.29831548061000035
-40.324999999999996,5.344497687815698e-10,1.51690439062098e-10,4.811161054233384e-10,2.3090669374583997e-10,9.345179776987131e-10,7.280147674305717e-10,2.01432522559,0.7256679160299999,-0.5499270078600003,-1.2163008296000002,-0.18696399621000026,-0.29831548061000035
-40.275,5.362036104378305e-10,1.5230334385187702e-10,4.828390788223022e-10,2.3185705625922927e-10,9.376414489645059e-10,7.305314644726037e-10,0.014325225589999824,-0.2743320839700001,0.45007299213999974,-0.2163008296000002,-1.1869639962100003,-1.2983154806100003
-40.225,5.379628083693395e-10,1.5291859009614357e-10,4.845678314617239e-10,2.328111132817098e-10,9.407746495865541e-10,7.330562949944921e-10,1.01432522559,-1.27433208397,1.4500729921399997,0.7836991703999998,-1.1869639962100003,-0.29831548061000035
-40.175,5.397273775348121e-10,1.5353618616532128e-10,4.863023812383026e-10,2.3376887823361653e-10,9.439176073373655e-10,7.355892831978316e-10,1.01432522559,1.72566791603,-0.5499270078600003,-0.2163008296000002,-0.18696399621000026,-0.29831548061000035
-40.125,5.414973329301008e-10,1.5415614045742073e-10,4.880427460988378e-10,2.347303645801121e-10,9.470703500598385e-10,7.381304533488783e-10,1.01432522559,1.72566791603,-0.5499270078600003,1.7836991703999998,-0.18696399621000026,-0.29831548061000035
-40.074999999999996,5.432726895882119e-10,1.5477846139809395e-10,4.89788944040283e-10,2.3569558583138797e-10,9.502329056678552e-10,7.406798297787778e-10,-0.9856747744100002,-0.2743320839700001,-0.5499270078600003,0.7836991703999998,-0.18696399621000026,-1.2983154806100003
-40.025,5.450534625794127e-10,1.5540315744074792e-10,4.9154099310979e-10,2.3666455554266575e-10,9.534053021461793e-10,7.432374368836346e-10,-0.9856747744100002,-1.27433208397,0.45007299213999974,-0.2163008296000002,-0.18696399621000026,-1.2983154806100003
-39.975,5.468396670112935e-10,1.56030237066607e-10,4.932989114048859e-10,2.376372873144118e-10,9.565875675507954e-10,7.458032991247192e-10,-0.9856747744100002,0.7256679160299999,0.45007299213999974,-0.2163008296000002,-0.18696399621000026,-0.29831548061000035
-39.925,5.486313180288923e-10,1.5665970878480184e-10,4.950627170736155e-10,2.3861379479251293e-10,9.597797300086982e-10,7.483774410285594e-10,0.014325225589999824,0.7256679160299999,-1.5499270078600003,0.7836991703999998,-1.1869639962100003,0.7016845193899997
-39.875,5.504284308146393e-10,1.5729158113245522e-10,4.968324283146711e-10,2.395940916682772e-10,9.62981817718627e-10,7.509598871871149e-10,1.01432522559,-0.2743320839700001,-1.5499270078600003,-0.2163008296000002,-1.1869639962100003,0.7016845193899997
-39.824999999999996,5.522310205886299e-10,1.5792586267475035e-10,4.986080633774083e-10,2.405781916787185e-10,9.661938589506209e-10,7.535506622579873e-10,0.014325225589999824,-1.27433208397,-1.5499270078600003,-1.2163008296000002,0.8130360037899997,-0.29831548061000035
-39.775,5.540391026086011e-10,1.5856256200503728e-10,5.003896405621023e-10,2.4156610860659783e-10,9.694158820466917e-10,7.561497909644466e-10,0.014325225589999824,-1.27433208397,-0.5499270078600003,0.7836991703999998,1.8130360037899997,2.7016845193899997
-39.725,5.558526921699e-10,1.5920168774488563e-10,5.021771782200508e-10,2.425578562805041e-10,9.726479154205104e-10,7.587572980957256e-10,-0.9856747744100002,0.7256679160299999,-1.5499270078600003,-1.2163008296000002,-1.1869639962100003,2.7016845193899997
-39.675,5.576718046057883e-10,1.5984324854420073e-10,5.039706947535748e-10,2.435534485752664e-10,9.758899875578628e-10,7.613732085070427e-10,0.014325225589999824,0.7256679160299999,-0.5499270078600003,-0.2163008296000002,-0.18696399621000026,-0.29831548061000035
-39.625,5.594964552873491e-10,1.604872530812812e-10,5.057702086162266e-10,2.4455289941173354e-10,9.791421270167909e-10,7.639975471198055e-10,-0.9856747744100002,0.7256679160299999,-0.5499270078600003,-1.2163008296000002,0.8130360037899997,-0.29831548061000035
-39.574999999999996,5.613266596236108e-10,1.6113371006292187e-10,5.075757383130361e-10,2.4555622275706204e-10,9.824043624276233e-10,7.66630338921811e-10,-0.9856747744100002,-1.27433208397,-1.5499270078600003,-0.2163008296000002,-1.1869639962100003,-0.29831548061000035
-39.525,5.631624330616421e-10,1.6178262822447872e-10,5.093873024003903e-10,2.4656343262503534e-10,9.856767224931004e-10,7.692716089672831e-10,0.014325225589999824,-1.27433208397,1.4500729921399997,0.7836991703999998,-0.18696399621000026,-0.29831548061000035
-39.475,5.650037910866864e-10,1.6243401632997451e-10,5.112049194863215e-10,2.4757454307591093e-10,9.889592359887938e-10,7.719213823771159e-10,-0.9856747744100002,-0.2743320839700001,-0.5499270078600003,1.7836991703999998,-1.1869639962100003,-0.29831548061000035
-39.425,5.668507492220816e-10,1.630878831721581e-10,5.130286082305744e-10,2.4858956821669663e-10,9.92251931762885e-10,7.74579684339043e-10,0.014325225589999824,0.7256679160299999,-0.5499270078600003,-1.2163008296000002,-1.1869639962100003,0.7016845193899997
-39.375,5.687033230294561e-10,1.6374423757261547e-10,5.14858387344774e-10,2.496085222012909e-10,9.955548387366276e-10,7.77246540107674e-10,0.014325225589999824,0.7256679160299999,3.45007299214,-1.2163008296000002,-1.1869639962100003,0.7016845193899997
-39.324999999999996,5.705615281088349e-10,1.6440308838183737e-10,5.166942755924761e-10,2.5063141923060706e-10,9.988679859044487e-10,7.79921975004785e-10,0.014325225589999824,0.7256679160299999,-1.5499270078600003,-0.2163008296000002,-0.18696399621000026,-0.29831548061000035
-39.275,5.724253800986281e-10,1.6506444447930541e-10,5.185362917894034e-10,2.516582735526568e-10,1.002191402333877e-09,7.826060144193323e-10,0.014325225589999824,-0.2743320839700001,-0.5499270078600003,-0.2163008296000002,-1.1869639962100003,0.7016845193899997
-39.225,5.742948946757755e-10,1.6572831477359262e-10,5.203844548034374e-10,2.5268909946291815e-10,1.0055251171659811e-09,7.852986838077329e-10,0.014325225589999824,-0.2743320839700001,-1.5499270078600003,0.7836991703999998,-1.1869639962100003,-0.29831548061000035
-39.175,5.761700875557524e-10,1.6639470820241958e-10,5.222387835548388e-10,2.537239113040614e-10,1.008869159615515e-09,7.880000086939628e-10,0.014325225589999824,0.7256679160299999,-1.5499270078600003,0.7836991703999998,0.8130360037899997,-1.2983154806100003
-39.125,5.780509744927217e-10,1.6706363373276936e-10,5.240992970163367e-10,2.547627234665193e-10,1.0122235589706575e-09,7.907100146696537e-10,-0.9856747744100002,1.72566791603,-1.5499270078600003,-1.2163008296000002,-0.18696399621000026,-0.29831548061000035
-39.074999999999996,5.799375712796717e-10,1.6773510036096318e-10,5.259660142132698e-10,2.5580555038839903e-10,1.0155883445938276e-09,7.934287273943764e-10,-0.9856747744100002,1.72566791603,-0.5499270078600003,-0.2163008296000002,-0.18696399621000026,-0.29831548061000035
-39.025,5.818298937482324e-10,1.6840911711273923e-10,5.278389542237025e-10,2.568524065556232e-10,1.018963545921313e-09,7.961561725956987e-10,1.01432522559,-0.2743320839700001,1.4500729921399997,-1.2163008296000002,-0.18696399621000026,-1.2983154806100003
-38.975,5.837279577691751e-10,1.6908569304334959e-10,5.297181361785837e-10,2.579033065021583e-10,1.0223491924635815e-09,7.988923760693118e-10,0.014325225589999824,-1.27433208397,0.45007299213999974,-1.2163008296000002,-1.1869639962100003,-1.2983154806100003
-38.925,5.856317792519801e-10,1.6976483723763755e-10,5.316035792617518e-10,2.5895826481005496e-10,1.0257453138056143e-09,8.016373636793145e-10,1.01432522559,0.7256679160299999,1.4500729921399997,-0.2163008296000002,-1.1869639962100003,2.7016845193899997
-38.875,5.875413741454805e-10,1.7044655881013493e-10,5.33495302710241e-10,2.6001729610973687e-10,1.02915193960689e-09,8.043911613582152e-10,-0.9856747744100002,-1.27433208397,1.4500729921399997,1.7836991703999998,-0.18696399621000026,-0.29831548061000035
-38.824999999999996,5.894567584373594e-10,1.711308669051372e-10,5.35393325814259e-10,2.610804150799676e-10,1.0325690996013957e-09,8.07153795107217e-10,0.014325225589999824,0.7256679160299999,-1.5499270078600003,-1.2163008296000002,-1.1869639962100003,-1.2983154806100003
-38.775,5.913779481547641e-10,1.7181777069679774e-10,5.372976679174259e-10,2.6214763644815557e-10,1.0359968235981362e-09,8.099252909963001e-10,-0.9856747744100002,-0.2743320839700001,-1.5499270078600003,-1.2163008296000002,0.8130360037899997,-0.29831548061000035
-38.725,5.933049593639601e-10,1.7250727938922538e-10,5.392083484168274e-10,2.6321897499037987e-10,1.0394351414811597e-09,8.127056751643478e-10,-0.9856747744100002,-0.2743320839700001,-0.5499270078600003,0.7836991703999998,-0.18696399621000026,1.7016845193899997
-38.675,5.952378081707888e-10,1.7319940221654493e-10,5.411253867631486e-10,2.64294445531608e-10,1.0428840832094087e-09,8.154949738194515e-10,2.01432522559,-1.27433208397,0.45007299213999974,0.7836991703999998,1.8130360037899997,-0.29831548061000035
-38.625,5.971765107203354e-10,1.7389414844300092e-10,5.430488024608325e-10,2.653740629457506e-10,1.0463436788174382e-09,8.182932132388612e-10,0.014325225589999824,-1.27433208397,-1.5499270078600003,-0.2163008296000002,-1.1869639962100003,-0.29831548061000035
-38.574999999999996,5.991210831974489e-10,1.7459152736307172e-10,5.44978615068193e-10,2.664578421559408e-10,1.0498139584152067e-09,8.211004197693126e-10,-0.9856747744100002,-1.27433208397,0.45007299213999974,1.7836991703999998,1.8130360037899997,0.7016845193899997
-38.525,6.010715418263732e-10,1.7529154830149494e-10,5.4691484419752e-10,2.6754579813455963e-10,1.0532949521880998e-09,8.239166198270695e-10,0.014325225589999824,-1.27433208397,-1.5499270078600003,-0.2163008296000002,-0.18696399621000026,-0.29831548061000035
-38.475,6.030279028713047e-10,1.7599422061342252e-10,5.488575095153004e-10,2.6863794590345645e-10,1.0567866903975523e-09,8.267418398981917e-10,-0.9856747744100002,0.7256679160299999,0.45007299213999974,-0.2163008296000002,0.8130360037899997,-0.29831548061000035
-38.425,6.04990182635978e-10,1.766995536844652e-10,5.508066307421766e-10,2.697343005340341e-10,1.060289203380864e-09,8.295761065384976e-10,1.01432522559,-0.2743320839700001,1.4500729921399997,-0.2163008296000002,-1.1869639962100003,-1.2983154806100003
-38.375,6.069583974642089e-10,1.7740755693079612e-10,5.527622276532464e-10,2.708348771473789e-10,1.063802521551421e-09,8.324194463739924e-10,1.01432522559,-0.2743320839700001,-0.5499270078600003,1.7836991703999998,0.8130360037899997,-0.29831548061000035
-38.324999999999996,6.089325637396245e-10,1.7811823979925388e-10,5.547243200781062e-10,2.719396909145919e-10,1.067326675398915e-09,8.352718861008143e-10,-0.9856747744100002,0.7256679160299999,-1.5499270078600003,-0.2163008296000002,-0.18696399621000026,0.7016845193899997
-38.275,6.109126978859675e-10,1.7883161176739693e-10,5.566929279010042e-10,2.7304875705670543e-10,1.070861695489564e-09,8.381334524854924e-10,1.01432522559,-1.27433208397,0.45007299213999974,-0.2163008296000002,-0.18696399621000026,-0.29831548061000035
-38.225,6.128988163669617e-10,1.7954768234363206e-10,5.586680710609467e-10,2.741620908449067e-10,1.074407612465911e-09,8.410041723650521e-10,-0.9856747744100002,-0.2743320839700001,-1.5499270078600003,0.7836991703999998,-0.18696399621000026,0.7016845193899997
-38.175,6.148909356866794e-10,1.8026646106728037e-10,5.606497695518353e-10,2.752797076007629e-10,1.0779644570475288e-09,8.438840726471966e-10,-0.9856747744100002,-1.27433208397,-0.5499270078600003,-1.2163008296000002,-0.18696399621000026,-1.2983154806100003
-38.125,6.168890723894067e-10,1.809879575086699e-10,5.62638043422637e-10,2.7640162269624497e-10,1.0815322600308663e-09,8.467731803104786e-10,0.014325225589999824,0.7256679160299999,-1.5499270078600003,0.7836991703999998,-0.18696399621000026,1.7016845193899997
-38.074999999999996,6.188932430597593e-10,1.817121812692438e-10,5.646329127774269e-10,2.775278515539534e-10,1.085111052289329e-09,8.496715224044582e-10,1.01432522559,-1.27433208397,-0.5499270078600003,0.7836991703999998,0.8130360037899997,1.7016845193899997
-38.025,6.209034643227637e-10,1.8243914198161762e-10,5.666343977756628e-10,2.7865840964729897e-10,1.0887008647736106e-09,8.525791260498277e-10,1.01432522559,-0.2743320839700001,1.4500729921399997,-1.2163008296000002,0.8130360037899997,-1.2983154806100003
-37.975,6.229197528440985e-10,1.8316884930970066e-10,5.686425186321644e-10,2.7979331250055725e-10,1.0923017285119646e-09,8.554960184385882e-10,2.01432522559,0.7256679160299999,-1.5499270078600003,-1.2163008296000002,-1.1869639962100003,0.7016845193899997
-37.925,6.249421253298853e-10,1.8390131294877967e-10,5.706572956173073e-10,2.80932575689065e-10,1.0959136746099634e-09,8.584222268342639e-10,0.014325225589999824,0.7256679160299999,-1.5499270078600003,0.7836991703999998,-1.1869639962100003,1.7016845193899997
-37.875,6.269705985270536e-10,1.846365426255915e-10,5.726787490571719e-10,2.8207621483940197e-10,1.09953673425111e-09,8.61357778571966e-10,-0.9856747744100002,-1.27433208397,1.4500729921399997,0.7836991703999998,-0.18696399621000026,-1.2983154806100003
-37.824999999999996,6.290051892232281e-10,1.853745480984447e-10,5.74706899333666e-10,2.8322424562946146e-10,1.1031709386966436e-09,8.643027010586009e-10,0.014325225589999824,1.72566791603,-0.5499270078600003,3.7836991704,-0.18696399621000026,-1.2983154806100003
-37.775,6.310459142468826e-10,1.8611533915728367e-10,5.76741766884608e-10,2.8437668378872874e-10,1.1068163192859515e-09,8.67257021773074e-10,-0.9856747744100002,0.7256679160299999,0.45007299213999974,-1.2163008296000002,0.8130360037899997,0.7016845193899997
-37.725,6.330927904674659e-10,1.8685892562380022e-10,5.787833722040065e-10,2.8553354509825517e-10,1.1104729074366396e-09,8.702207682663715e-10,3.01432522559,0.7256679160299999,1.4500729921399997,0.7836991703999998,-1.1869639962100003,0.7016845193899997
-37.675,6.351458347953972e-10,1.8760531735151794e-10,5.808317358419052e-10,2.8669484539095455e-10,1.1141407346447587e-09,8.7319396816177e-10,-0.9856747744100002,-0.2743320839700001,-1.5499270078600003,-0.2163008296000002,1.8130360037899997,-0.29831548061000035
-37.625,6.372050641822184e-10,1.8835452422587503e-10,5.828868784049022e-10,2.8786060055173884e-10,1.117819832484652e-09,8.761766491549862e-10,1.01432522559,1.72566791603,-1.5499270078600003,-1.2163008296000002,-0.18696399621000026,-1.2983154806100003
-37.574999999999996,6.392704956206789e-10,1.8910655616433433e-10,5.849488205558867e-10,2.890308265175399e-10,1.1215102326096719e-09,8.791688390143265e-10,-0.9856747744100002,0.7256679160299999,-0.5499270078600003,-1.2163008296000002,-1.1869639962100003,-0.29831548061000035
-37.525,6.413421461447091e-10,1.898614231164694e-10,5.870175830145197e-10,2.90205539277674e-10,1.1252119667518542e-09,8.821705655808848e-10,0.014325225589999824,-0.2743320839700001,1.4500729921399997,2.7836991704,-1.1869639962100003,2.7016845193899997
-37.475,6.434200328296488e-10,1.9061913506405212e-10,5.890931865571017e-10,2.913847548737981e-10,1.1289250667223354e-09,8.85181856768689e-10,0.014325225589999824,-0.2743320839700001,-1.5499270078600003,1.7836991703999998,-1.1869639962100003,-0.29831548061000035
-37.425,6.455041727922296e-10,1.9137970202115696e-10,5.911756520168728e-10,2.9256848940019474e-10,1.1326495644115032e-09,8.882027405647792e-10,-0.9856747744100002,0.7256679160299999,-1.5499270078600003,-1.2163008296000002,0.8130360037899997,-1.2983154806100003
-37.375,6.475945831907607e-10,1.9214313403423264e-10,5.932650002840793e-10,2.937567590038428e-10,1.1363854917890165e-09,8.912332450295549e-10,1.01432522559,-0.2743320839700001,0.45007299213999974,-0.2163008296000002,0.8130360037899997,-1.2983154806100003
-37.324999999999996,6.496912812250915e-10,1.9290944118222555e-10,5.953612523060662e-10,2.949495798846209e-10,1.1401328809041143e-09,8.942733982967154e-10,-0.9856747744100002,0.7256679160299999,-1.5499270078600003,2.7836991704,-0.18696399621000026,0.7016845193899997
-37.275,6.517942841367514e-10,1.936786335766578e-10,5.974644290875201e-10,2.961469682954625e-10,1.1438917638857004e-09,8.97323228573698e-10,2.01432522559,-0.2743320839700001,-1.5499270078600003,1.7836991703999998,-0.18696399621000026,0.7016845193899997
-37.225,6.539036092089674e-10,1.9445072136170867e-10,5.995745516905716e-10,2.9734894054245966e-10,1.1476621729426736e-09,9.003827641415031e-10,0.014325225589999824,-0.2743320839700001,1.4500729921399997,0.7836991703999998,1.8130360037899997,-1.2983154806100003
-37.175,6.560192737670364e-10,1.952257147143477e-10,6.016916412348098e-10,2.985555129850346e-10,1.1514441403637332e-09,9.034520333551582e-10,0.014325225589999824,1.72566791603,-0.5499270078600003,-1.2163008296000002,0.8130360037899997,-1.2983154806100003
-37.125,6.581412951779356e-10,1.9600362384437837e-10,6.038157188975705e-10,2.9976670203619697e-10,1.1552376985180355e-09,9.065310646437095e-10,-0.9856747744100002,-0.2743320839700001,0.45007299213999974,-1.2163008296000002,1.8130360037899997,2.7016845193899997
-37.074999999999996,6.602696908508531e-10,1.9678445899457283e-10,6.059468059139697e-10,3.009825241624962e-10,1.1590428798548695e-09,9.096198865104505e-10,-0.9856747744100002,-0.2743320839700001,0.45007299213999974,-0.2163008296000002,1.8130360037899997,-1.2983154806100003
-37.025,6.624044782368509e-10,1.9756823044075765e-10,6.080849235771753e-10,3.022029958844153e-10,1.162859716904151e-09,9.127185275330874e-10,1.01432522559,-1.27433208397,-0.5499270078600003,-1.2163008296000002,0.8130360037899997,0.7016845193899997
-36.975,6.645456748294476e-10,1.9835494849189063e-10,6.102300932383724e-10,3.0342813377634094e-10,1.1666882422765074e-09,9.158270163638446e-10,0.014325225589999824,1.72566791603,-1.5499270078600003,-0.2163008296000002,-1.1869639962100003,-0.29831548061000035
-36.925,6.666932981641557e-10,1.9914462349018494e-10,6.123823363069667e-10,3.046579544667527e-10,1.1705284886634626e-09,9.189453817297747e-10,0.014325225589999824,-0.2743320839700001,2.45007299214,-0.2163008296000002,-0.18696399621000026,-0.29831548061000035
-36.875,6.688473658191051e-10,1.9993726581118038e-10,6.145416742507819e-10,3.058924746385542e-10,1.1743804888374203e-09,9.220736524326747e-10,-0.9856747744100002,0.7256679160299999,-1.5499270078600003,0.7836991703999998,-0.18696399621000026,0.7016845193899997
-36.824999999999996,6.710078954146259e-10,2.0073288586385392e-10,6.167081285960919e-10,3.0713171102893655e-10,1.1782442756521483e-09,9.252118573496065e-10,-0.9856747744100002,-1.27433208397,-1.5499270078600003,-1.2163008296000002,-0.18696399621000026,2.7016845193899997
-36.775,6.731749046137887e-10,2.0153149409072033e-10,6.188817209278445e-10,3.0837568042977876e-10,1.182119882042713e-09,9.283600254326291e-10,2.01432522559,-0.2743320839700001,-0.5499270078600003,-0.2163008296000002,0.8130360037899997,1.7016845193899997
-36.725,6.753484111220322e-10,2.0233310096789995e-10,6.210624728897639e-10,3.096243996877025e-10,1.1860073410256472e-09,9.315181857093526e-10,0.014325225589999824,0.7256679160299999,-1.5499270078600003,0.7836991703999998,-0.18696399621000026,-0.29831548061000035
-36.675,6.77528432687726e-10,2.0313771700524978e-10,6.232504061844785e-10,3.108778857042657e-10,1.1899066856993193e-09,9.34686367282903e-10,0.014325225589999824,-0.2743320839700001,-0.5499270078600003,-1.2163008296000002,2.8130360037899997,-1.2983154806100003
-36.625,6.797149871017859e-10,2.0394535274645356e-10,6.254455425736321e-10,3.12136155436016e-10,1.1938179492438844e-09,9.378645993321314e-10,2.01432522559,1.72566791603,-0.5499270078600003,-0.2163008296000002,-1.1869639962100003,2.7016845193899997
-36.574999999999996,6.819080921982593e-10,2.0475601876908261e-10,6.276479038781451e-10,3.1339922589482634e-10,1.197741164921503e-09,9.410529111117859e-10,-0.9856747744100002,0.7256679160299999,-1.5499270078600003,0.7836991703999998,-1.1869639962100003,2.7016845193899997
-36.525,6.841077658538323e-10,2.055697256847615e-10,6.298575119781403e-10,3.146671141480035e-10,1.2016763660766783e-09,9.442513319527024e-10,-0.9856747744100002,0.7256679160299999,0.45007299213999974,1.7836991703999998,0.8130360037899997,0.7016845193899997
-36.475,6.863140259884651e-10,2.0638648413919313e-10,6.32074388813374e-10,3.1593983731825177e-10,1.2056235861361226e-09,9.474598912618997e-10,-0.9856747744100002,-0.2743320839700001,0.45007299213999974,-1.2163008296000002,-0.18696399621000026,-0.29831548061000035
-36.425,6.885268905651495e-10,2.0720630481230608e-10,6.342985563829997e-10,3.1721741258424454e-10,1.2095828586091957e-09,9.506786185227951e-10,-0.9856747744100002,0.7256679160299999,-0.5499270078600003,1.7836991703999998,-0.18696399621000026,-1.2983154806100003
-36.375,6.90746377590091e-10,2.0802919841834276e-10,6.365300367461189e-10,3.1849985718028464e-10,1.213554217087976e-09,9.539075432954194e-10,0.014325225589999824,0.7256679160299999,-0.5499270078600003,-0.2163008296000002,1.8130360037899997,-0.29831548061000035
-36.324999999999996,6.929725051127554e-10,2.0885517570593556e-10,6.387688520215334e-10,3.197871883968416e-10,1.217537695247445e-09,9.571466952164841e-10,0.014325225589999824,-0.2743320839700001,1.4500729921399997,0.7836991703999998,0.8130360037899997,-1.2983154806100003
-36.275,6.952052912260036e-10,2.0968424745823218e-10,6.410150243881453e-10,3.210794235805527e-10,1.221533326845504e-09,9.603961039996798e-10,0.014325225589999824,0.7256679160299999,-1.5499270078600003,0.7836991703999998,0.8130360037899997,-0.29831548061000035
-36.225,6.974447540661884e-10,2.1051642449298278e-10,6.432685760850891e-10,3.2237658013447573e-10,1.2255411457234889e-09,9.636557994357423e-10,0.014325225589999824,-1.27433208397,-1.5499270078600003,0.7836991703999998,-0.18696399621000026,-0.29831548061000035
-36.175,6.996909118131306e-10,2.113517176626358e-10,6.45529529411661e-10,3.2367867551808747e-10,1.229561185805979e-09,9.669258113925764e-10,0.014325225589999824,0.7256679160299999,0.45007299213999974,-0.2163008296000002,-1.1869639962100003,0.7016845193899997
-36.125,7.019437826904044e-10,2.1219013785445543e-10,6.47797906727687e-10,3.249857272477218e-10,1.2335934811011574e-09,9.702061698155937e-10,0.014325225589999824,-0.2743320839700001,1.4500729921399997,-0.2163008296000002,-0.18696399621000026,-1.2983154806100003
-36.074999999999996,7.042033849651757e-10,2.130316959905885e-10,6.500737304535353e-10,3.2629775289638393e-10,1.237638065701e-09,9.734969047277198e-10,-0.9856747744100002,-0.2743320839700001,-0.5499270078600003,-0.2163008296000002,0.8130360037899997,-0.29831548061000035
-36.025,7.064697369485264e-10,2.1387640302820144e-10,6.523570230702745e-10,3.276147700941903e-10,1.2416949737813607e-09,9.76798046229688e-10,0.014325225589999824,-0.2743320839700001,-0.5499270078600003,-0.2163008296000002,-0.18696399621000026,0.7016845193899997
-35.975,7.087428569954028e-10,2.1472426995954917e-10,6.546478071199348e-10,3.2893679652853443e-10,1.2457642396021068e-09,9.801096245001204e-10,-0.9856747744100002,1.72566791603,-0.5499270078600003,-0.2163008296000002,-1.1869639962100003,-1.2983154806100003
-35.925000000000004,7.110227635046409e-10,2.1557530781209458e-10,6.569461052054078e-10,3.3026384994399113e-10,1.2498458975075738e-09,9.834316697957612e-10,2.01432522559,-1.27433208397,2.45007299214,0.7836991703999998,-0.18696399621000026,1.7016845193899997
-35.87499999999999,7.133094749192437e-10,2.164295276486158e-10,6.5925193999082e-10,3.3159594814270394e-10,1.2539399819262063e-09,9.867642124515706e-10,-0.9856747744100002,-0.2743320839700001,0.45007299213999974,-0.2163008296000002,-0.18696399621000026,-1.2983154806100003
-35.824999999999996,7.156030097263897e-10,2.1728694056726694e-10,6.615653342014775e-10,3.3293310898455216e-10,1.2580465273713522e-09,9.901072828810294e-10,0.014325225589999824,-1.27433208397,-0.5499270078600003,-1.2163008296000002,-1.1869639962100003,-0.29831548061000035
-35.775,7.179033864574068e-10,2.181475577017297e-10,6.638863106243089e-10,3.3427535038718486e-10,1.2621655684409193e-09,9.934609115761074e-10,-0.9856747744100002,-1.27433208397,0.45007299213999974,-1.2163008296000002,-1.1869639962100003,0.7016845193899997
-35.725,7.202106236879921e-10,2.1901139022128406e-10,6.662148921076114e-10,3.3562269032631925e-10,1.2662971398179578e-09,9.968251291076805e-10,0.014325225589999824,-0.2743320839700001,0.45007299213999974,-1.2163008296000002,-1.1869639962100003,-0.29831548061000035
-35.675000000000004,7.225247400382892e-10,2.1987844933090983e-10,6.685511015614952e-10,3.369751468357741e-10,1.270441276270424e-09,1.0001999661254872e-09,1.01432522559,-0.2743320839700001,0.45007299213999974,-1.2163008296000002,-0.18696399621000026,-0.29831548061000035
-35.62499999999999,7.248457541728725e-10,2.2074874627142246e-10,6.708949619578931e-10,3.383327380079053e-10,1.2745980126517458e-09,1.0035854533584454e-09,0.014325225589999824,-1.27433208397,0.45007299213999974,-1.2163008296000002,-1.1869639962100003,-1.2983154806100003
-35.574999999999996,7.271736848009998e-10,2.216222923195145e-10,6.732464963307031e-10,3.3969548199323593e-10,1.2787673839007112e-09,1.0069816216147006e-09,0.014325225589999824,-0.2743320839700001,-0.5499270078600003,1.7836991703999998,-0.18696399621000026,0.7016845193899997
-35.525,7.29508550676556e-10,2.2249909878791558e-10,6.756057277759879e-10,3.410633970014124e-10,1.2829494250417848e-09,1.010388501781983e-09,0.014325225589999824,-0.2743320839700001,0.45007299213999974,0.7836991703999998,1.8130360037899997,-0.29831548061000035
-35.475,7.318503705981607e-10,2.233791770254621e-10,6.779726794521482e-10,3.4243650130050575e-10,1.287144171185265e-09,1.01380612482756e-09,0.014325225589999824,-1.27433208397,-0.5499270078600003,-0.2163008296000002,-1.1869639962100003,1.7016845193899997
-35.425000000000004,7.3419916340936e-10,2.2426253841721084e-10,6.803473745798924e-10,3.438148132178753e-10,1.2913516575274395e-09,1.017234521798574e-09,2.01432522559,1.72566791603,0.45007299213999974,-0.2163008296000002,-1.1869639962100003,-1.2983154806100003
-35.37499999999999,7.365549479985589e-10,2.2514919438455007e-10,6.827298364425532e-10,3.451983511399905e-10,1.295571919350651e-09,1.0206737238221224e-09,1.01432522559,-0.2743320839700001,-1.5499270078600003,-0.2163008296000002,-0.18696399621000026,-0.29831548061000035
-35.324999999999996,7.389177432992648e-10,2.260391563852744e-10,6.851200883862128e-10,3.4658713351261774e-10,1.2998049920237277e-09,1.0241237621055125e-09,1.01432522559,-0.2743320839700001,-0.5499270078600003,-0.2163008296000002,-1.1869639962100003,-0.29831548061000035
-35.275,7.412875682901041e-10,2.2693243591371805e-10,6.875181538197601e-10,3.479811788411482e-10,1.3040509110020503e-09,1.02758466793637e-09,1.01432522559,-0.2743320839700001,0.45007299213999974,-0.2163008296000002,0.8130360037899997,-0.29831548061000035
-35.225,7.436644419948257e-10,2.2782904450085917e-10,6.899240562150827e-10,3.4938050569063074e-10,1.3083097118274487e-09,1.0310564726828207e-09,-0.9856747744100002,-0.2743320839700001,1.4500729921399997,-1.2163008296000002,-0.18696399621000026,-1.2983154806100003
-35.175000000000004,7.460483834825468e-10,2.287289937143866e-10,6.923378191072025e-10,3.50785132685982e-10,1.3125814301287854e-09,1.0345392077936879e-09,-0.9856747744100002,-1.27433208397,3.45007299214,-0.2163008296000002,-1.1869639962100003,1.7016845193899997
-35.12499999999999,7.484394118678111e-10,2.2963229515885582e-10,6.947594660945083e-10,3.5219507851213724e-10,1.3168661016220385e-09,1.0380329047987044e-09,1.01432522559,-0.2743320839700001,-1.5499270078600003,-1.2163008296000002,0.8130360037899997,-0.29831548061000035
-35.074999999999996,7.508375463104964e-10,2.305389604757548e-10,6.971890208387146e-10,3.5361036191428214e-10,1.3211637621102182e-09,1.0415375953085698e-09,-0.9856747744100002,-0.2743320839700001,-1.5499270078600003,-0.2163008296000002,1.8130360037899997,-1.2983154806100003
-35.025,7.532428060161588e-10,2.3144900134361473e-10,6.996265070651448e-10,3.5503100169792456e-10,1.3254744474838782e-09,1.0450533110152605e-09,1.01432522559,0.7256679160299999,0.45007299213999974,-0.2163008296000002,-1.1869639962100003,-0.29831548061000035
-34.975,7.556552102359183e-10,2.323624294781401e-10,7.020719485629162e-10,3.564570167292074e-10,1.3297981937210682e-09,1.0485800836920998e-09,0.014325225589999824,-1.27433208397,-0.5499270078600003,-0.2163008296000002,1.8130360037899997,0.7016845193899997
-34.925000000000004,7.580747782667744e-10,2.332792566322792e-10,7.045253691849678e-10,3.5788842593488e-10,1.3341350368875852e-09,1.0521179451940114e-09,0.014325225589999824,-1.27433208397,-1.5499270078600003,-1.2163008296000002,-0.18696399621000026,-0.29831548061000035
-34.87499999999999,7.605015294513499e-10,2.34199494596356e-10,7.069867928482447e-10,3.593252483026932e-10,1.3384850131372275e-09,1.0556669274576568e-09,-0.9856747744100002,-1.27433208397,-0.5499270078600003,-0.2163008296000002,-0.18696399621000026,-0.29831548061000035
-34.824999999999996,7.629354831784005e-10,2.351231551981696e-10,7.09456243533856e-10,3.607675028815135e-10,1.342848158711821e-09,1.0592270625016806e-09,-0.9856747744100002,-1.27433208397,-0.5499270078600003,-0.2163008296000002,-1.1869639962100003,0.7016845193899997
-34.775,7.653766588824839e-10,2.360502503030749e-10,7.119337452872406e-10,3.622152087813543e-10,1.3472245099414311e-09,1.0627983824266775e-09,1.01432522559,-1.27433208397,0.45007299213999974,-0.2163008296000002,1.8130360037899997,0.7016845193899997
-34.725,7.678250760444597e-10,2.3698079181414744e-10,7.144193222182839e-10,3.636683851736716e-10,1.3516141032446783e-09,1.0663809194156552e-09,1.01432522559,0.7256679160299999,-0.5499270078600003,-1.2163008296000002,-0.18696399621000026,3.7016845193899997
-34.675000000000004,7.702807541911778e-10,2.379147916722147e-10,7.169129985014756e-10,3.6512705129156084e-10,1.3560169751287803e-09,1.0699747057340088e-09,1.01432522559,-0.2743320839700001,0.45007299213999974,-0.2163008296000002,0.8130360037899997,0.7016845193899997
-34.62499999999999,7.727437128959499e-10,2.388522618560249e-10,7.194147983760563e-10,3.665912264298905e-10,1.3604331621898083e-09,1.0735797737298282e-09,-0.9856747744100002,1.72566791603,0.45007299213999974,3.7836991704,0.8130360037899997,0.7016845193899997
-34.574999999999996,7.752139717782328e-10,2.3979321438233034e-10,7.21924746146166e-10,3.680609299453739e-10,1.3648627011126913e-09,1.0771961558339239e-09,-0.9856747744100002,1.72566791603,0.45007299213999974,-0.2163008296000002,-0.18696399621000026,-1.2983154806100003
-34.525,7.776915505042038e-10,2.4073766130597974e-10,7.244428661809714e-10,3.6953618125695273e-10,1.3693056286717234e-09,1.0808238845602185e-09,-0.9856747744100002,-0.2743320839700001,-0.5499270078600003,2.7836991704,0.8130360037899997,1.7016845193899997
-34.475,7.801764687863095e-10,2.4168561472006453e-10,7.269691829149258e-10,3.7101699984589186e-10,1.3737619817303954e-09,1.0844629925057138e-09,1.01432522559,-0.2743320839700001,-1.5499270078600003,1.7836991703999998,-1.1869639962100003,-0.29831548061000035
-34.425000000000004,7.826687463838864e-10,2.4263708675597405e-10,7.295037208476937e-10,3.725034052557866e-10,1.3782317972418844e-09,1.0881135123507743e-09,-0.9856747744100002,-1.27433208397,1.4500729921399997,0.7836991703999998,-1.1869639962100003,-0.29831548061000035
-34.37499999999999,7.851684031028317e-10,2.435920895835511e-10,7.320465045445129e-10,3.739954170931209e-10,1.3827151122488035e-09,1.091775476859317e-09,0.014325225589999824,-0.2743320839700001,0.45007299213999974,-1.2163008296000002,-0.18696399621000026,-0.29831548061000035
-34.324999999999996,7.876754587959362e-10,2.4455063541118893e-10,7.345975586362634e-10,3.7549305502704283e-10,1.3872119638839894e-09,1.0954489188789357e-09,1.01432522559,0.7256679160299999,-0.5499270078600003,0.7836991703999998,-1.1869639962100003,-1.2983154806100003
-34.275,7.901899333627969e-10,2.45512736485908e-10,7.371569078195317e-10,3.769963387897119e-10,1.391722389370093e-09,1.0991338713411664e-09,0.014325225589999824,-1.27433208397,-0.5499270078600003,-1.2163008296000002,-1.1869639962100003,-0.29831548061000035
-34.225,7.927118467501205e-10,2.464784050935137e-10,7.397245768569798e-10,3.785052881765419e-10,1.3962464260202128e-09,1.1028303672615206e-09,-0.9856747744100002,2.72566791603,-1.5499270078600003,1.7836991703999998,-1.1869639962100003,0.7016845193899997
-34.175000000000004,7.952412189516912e-10,2.4744765355866343e-10,7.423005905772753e-10,3.8001992304631615e-10,1.400784111237682e-09,1.1065384397398605e-09,1.01432522559,-0.2743320839700001,0.45007299213999974,2.7836991704,-1.1869639962100003,-0.29831548061000035
-34.12499999999999,7.977780700084499e-10,2.484204942450063e-10,7.44884973875294e-10,3.8154026332123746e-10,1.405335482516602e-09,1.110258121960415e-09,-0.9856747744100002,0.7256679160299999,-1.5499270078600003,-0.2163008296000002,0.8130360037899997,-0.29831548061000035
-34.074999999999996,8.003224200084945e-10,2.493969395552775e-10,7.474777517124067e-10,3.830663289874313e-10,1.40990057744183e-09,1.1139894471920484e-09,-0.9856747744100002,0.7256679160299999,-0.5499270078600003,0.7836991703999998,-0.18696399621000026,1.7016845193899997
-34.025,8.028742890874766e-10,2.5037700193139884e-10,7.500789491164176e-10,3.845981400947808e-10,1.4144794336891362e-09,1.1177324487884172e-09,2.01432522559,-1.27433208397,-0.5499270078600003,0.7836991703999998,-1.1869639962100003,0.7016845193899997
-33.975,8.05433697428433e-10,2.513606938546144e-10,7.526885911818865e-10,3.8613571675741135e-10,1.4190720890254464e-09,1.1214871601881536e-09,-0.9856747744100002,-1.27433208397,1.4500729921399997,-0.2163008296000002,-0.18696399621000026,-0.29831548061000035
-33.925000000000004,8.080006652619096e-10,2.523480278455907e-10,7.553067030701604e-10,3.8767907915358866e-10,1.4236785813091859e-09,1.1252536149150288e-09,0.014325225589999824,1.72566791603,-0.5499270078600003,0.7836991703999998,0.8130360037899997,1.7016845193899997
-33.87499999999999,8.105752128660766e-10,2.533390164644935e-10,7.579333100096979e-10,3.8922824752603004e-10,1.4282989484900575e-09,1.1290318465781775e-09,0.014325225589999824,-0.2743320839700001,-1.5499270078600003,-1.2163008296000002,-1.1869639962100003,-0.29831548061000035
-33.824999999999996,8.131573605668764e-10,2.543336723111843e-10,7.605684372959299e-10,3.907832421821758e-10,1.4329332286096683e-09,1.1328218888722567e-09,-0.9856747744100002,0.7256679160299999,-0.5499270078600003,-1.2163008296000002,-1.1869639962100003,-0.29831548061000035
-33.775,8.157471287380594e-10,2.553320080252151e-10,7.632121102916796e-10,3.9234408349419427e-10,1.4375814598014293e-09,1.1366237755775699e-09,-0.9856747744100002,0.7256679160299999,0.45007299213999974,-1.2163008296000002,-1.1869639962100003,-0.29831548061000035
-33.725,8.183445378012504e-10,2.563340362860367e-10,7.658643544272731e-10,3.9391079189938793e-10,1.4422436802907373e-09,1.1404375405604052e-09,2.01432522559,-1.27433208397,-1.5499270078600003,-1.2163008296000002,-0.18696399621000026,-1.2983154806100003
-33.675000000000004,8.209496082261242e-10,2.573397698130763e-10,7.685251952005063e-10,3.954833878999509e-10,1.446919928395423e-09,1.1442632177730333e-09,0.014325225589999824,-1.27433208397,-1.5499270078600003,-1.2163008296000002,1.8130360037899997,-1.2983154806100003
-33.62499999999999,8.235623605304601e-10,2.5834922136583327e-10,7.71194658177048e-10,3.970618920638024e-10,1.4516102425256295e-09,1.1481008412540435e-09,0.014325225589999824,-0.2743320839700001,-0.5499270078600003,-1.2163008296000002,-0.18696399621000026,-1.2983154806100003
-33.574999999999996,8.261828152801674e-10,2.593624037440035e-10,7.738727689904067e-10,3.9864632502423363e-10,1.4563146611840544e-09,1.1519504451284239e-09,-0.9856747744100002,-0.2743320839700001,-0.5499270078600003,-0.2163008296000002,-1.1869639962100003,0.7016845193899997
-33.525,8.288109930894676e-10,2.6037932978760695e-10,7.765595533421497e-10,4.002367074802937e-10,1.461033222966361e-09,1.1558120636078018e-09,0.014325225589999824,-1.27433208397,0.45007299213999974,2.7836991704,-1.1869639962100003,-1.2983154806100003
-33.475,8.314469146208716e-10,2.6140001237708003e-10,7.792550370020671e-10,4.01833060196884e-10,1.4657659665611581e-09,1.1596857309906114e-09,0.014325225589999824,0.7256679160299999,-0.5499270078600003,-0.2163008296000002,-0.18696399621000026,-0.29831548061000035
-33.425000000000004,8.340906005856126e-10,2.6242446443340335e-10,7.819592458083247e-10,4.0343540400514797e-10,1.4705129307500575e-09,1.1635714816622793e-09,2.01432522559,0.7256679160299999,-0.5499270078600003,-1.2163008296000002,-0.18696399621000026,-1.2983154806100003
-33.37499999999999,8.367420717431265e-10,2.634526989182002e-10,7.846722056676194e-10,4.0504375980238405e-10,1.4752741544082313e-09,1.1674693500954191e-09,0.014325225589999824,2.72566791603,-1.5499270078600003,-1.2163008296000002,-1.1869639962100003,0.7016845193899997
-33.324999999999996,8.394013489017577e-10,2.644847288338537e-10,7.873939425552546e-10,4.0665814855246014e-10,1.4800496765043727e-09,1.1713793708499564e-09,-0.9856747744100002,-0.2743320839700001,-0.5499270078600003,1.7836991703999998,0.8130360037899997,-0.29831548061000035
-33.275,8.420684529183902e-10,2.655205672236429e-10,7.901244825154266e-10,4.0827859128597886e-10,1.484839536100687e-09,1.1753015785734568e-09,1.01432522559,-1.27433208397,0.45007299213999974,0.7836991703999998,0.8130360037899997,-1.2983154806100003
-33.225,8.447434046990173e-10,2.6656022717180843e-10,7.928638516613377e-10,4.0990510910009317e-10,1.4896437723535622e-09,1.1792360080011046e-09,-0.9856747744100002,-1.27433208397,-0.5499270078600003,-1.2163008296000002,2.8130360037899997,-0.29831548061000035
-33.175000000000004,8.474262251983088e-10,2.6760372180373186e-10,7.956120761752369e-10,4.1153772315932017e-10,1.4944624245133128e-09,1.1831826939561466e-09,0.014325225589999824,-1.27433208397,0.45007299213999974,-0.2163008296000002,-1.1869639962100003,0.7016845193899997
-33.12499999999999,8.501169354200873e-10,2.6865106428598533e-10,7.983691823087657e-10,4.131764546952886e-10,1.4992955319245326e-09,1.1871416713498205e-09,0.014325225589999824,-1.27433208397,-0.5499270078600003,2.7836991704,-1.1869639962100003,-1.2983154806100003
-33.074999999999996,8.528155564171442e-10,2.697022678264909e-10,8.011351963828895e-10,4.148213250070435e-10,1.5041431340264741e-09,1.1911129751816825e-09,1.01432522559,1.72566791603,-1.5499270078600003,-1.2163008296000002,1.8130360037899997,0.7016845193899997
-33.025,8.55522109291733e-10,2.707573456746266e-10,8.039101447883001e-10,4.1647235546118747e-10,1.5090052703526575e-09,1.1950966405398216e-09,0.014325225589999824,1.72566791603,-0.5499270078600003,-0.2163008296000002,-1.1869639962100003,-0.29831548061000035
-32.975,8.582366151950919e-10,2.718163111213112e-10,8.066940539853573e-10,4.181295674921875e-10,1.5138819805318268e-09,1.1990927026009446e-09,0.014325225589999824,-1.27433208397,1.4500729921399997,-0.2163008296000002,-0.18696399621000026,-0.29831548061000035
-32.925000000000004,8.609590953281468e-10,2.728791774991829e-10,8.094869505044044e-10,4.197929826024954e-10,1.5187733042877105e-09,1.2031011966306492e-09,-0.9856747744100002,-1.27433208397,-0.5499270078600003,1.7836991703999998,-0.18696399621000026,-1.2983154806100003
-32.87499999999999,8.636895709411284e-10,2.7394595818263473e-10,8.122888609458096e-10,4.214626223626657e-10,1.523679281438947e-09,1.2071221579835088e-09,0.014325225589999824,-1.27433208397,0.45007299213999974,2.7836991704,1.8130360037899997,2.7016845193899997
-32.824999999999996,8.664280633339838e-10,2.750166665879998e-10,8.150998119801916e-10,4.231385084116889e-10,1.528599951899791e-09,1.2111556221034846e-09,-0.9856747744100002,-0.2743320839700001,-0.5499270078600003,1.7836991703999998,1.8130360037899997,0.7016845193899997
-32.775,8.691745938561285e-10,2.76091316173651e-10,8.179198303485656e-10,4.248206624569915e-10,1.5335353556802795e-09,1.2152016245237526e-09,0.014325225589999824,-1.27433208397,1.4500729921399997,-0.2163008296000002,-1.1869639962100003,-0.29831548061000035
-32.725,8.719291839069561e-10,2.771699204400685e-10,8.207489428624301e-10,4.265091062749395e-10,1.5384855328857032e-09,1.2192602008672714e-09,1.01432522559,0.7256679160299999,0.45007299213999974,-0.2163008296000002,0.8130360037899997,-0.29831548061000035
-32.675000000000004,8.746918549356021e-10,2.7825249293003283e-10,8.235871764040179e-10,4.282038617107183e-10,1.5434505237178382e-09,1.2233313868466865e-09,0.014325225589999824,1.72566791603,0.45007299213999974,0.7836991703999998,-1.1869639962100003,-1.2983154806100003
-32.62499999999999,8.774626284412593e-10,2.7933904722868774e-10,8.264345579264996e-10,4.299049506786694e-10,1.5484303684744167e-09,1.2274152182647015e-09,3.01432522559,1.72566791603,-1.5499270078600003,0.7836991703999998,0.8130360037899997,-0.29831548061000035
-32.574999999999996,8.80241525973062e-10,2.8042959696367894e-10,8.29291114453909e-10,4.316123951624341e-10,1.5534251075492897e-09,1.2315117310141551e-09,0.014325225589999824,-1.27433208397,1.4500729921399997,-0.2163008296000002,0.8130360037899997,-1.2983154806100003
-32.525,8.830285691303916e-10,2.8152415580527426e-10,8.32156873081546e-10,4.3332621721522074e-10,1.55843478143321e-09,1.2356209610783065e-09,1.01432522559,-1.27433208397,-0.5499270078600003,-1.2163008296000002,-0.18696399621000026,1.7016845193899997
-32.475,8.858237795628092e-10,2.8262273746646537e-10,8.350318609759705e-10,4.3504643895987567e-10,1.563459430713474e-09,1.2397429445309037e-09,1.01432522559,-0.2743320839700001,0.45007299213999974,-0.2163008296000002,-0.18696399621000026,-1.2983154806100003
-32.425000000000004,8.886271789702258e-10,2.837253557031004e-10,8.379161053753749e-10,4.3677308258922457e-10,1.5684990960741485e-09,1.2438777175364967e-09,-0.9856747744100002,-0.2743320839700001,-0.5499270078600003,-1.2163008296000002,6.81303600379,-1.2983154806100003
-32.37499999999999,8.914387891030212e-10,2.848320243140046e-10,8.408096335894816e-10,4.3850617036614423e-10,1.5735538182966638e-09,1.2480253163506023e-09,1.01432522559,1.72566791603,-0.5499270078600003,-0.2163008296000002,0.8130360037899997,1.7016845193899997
-32.324999999999996,8.942586317620405e-10,2.8594275714107685e-10,8.437124729998447e-10,4.4024572462385677e-10,1.5786236382596022e-09,1.2521857773196993e-09,0.014325225589999824,0.7256679160299999,-1.5499270078600003,-0.2163008296000002,-1.1869639962100003,0.7016845193899997
-32.275,8.970867287988121e-10,2.870575680694492e-10,8.466246510599616e-10,4.419917677660255e-10,1.5837085969389328e-09,1.2563591368818828e-09,-0.9856747744100002,-0.2743320839700001,0.45007299213999974,-0.2163008296000002,0.8130360037899997,-1.2983154806100003
-32.225,8.999231021155068e-10,2.8817647102756416e-10,8.495461952955417e-10,4.4374432226702534e-10,1.5888087354084668e-09,1.2605454315664413e-09,-0.9856747744100002,-1.27433208397,0.45007299213999974,0.7836991703999998,-1.1869639962100003,-0.29831548061000035
-32.175000000000004,9.027677736652087e-10,2.8929947998731434e-10,8.524771333044719e-10,4.4550341067211506e-10,1.5939240948398073e-09,1.2647446979946462e-09,0.014325225589999824,0.7256679160299999,1.4500729921399997,-0.2163008296000002,-0.18696399621000026,0.7016845193899997
-32.12499999999999,9.056207654517826e-10,2.904266089641728e-10,8.554174927571602e-10,4.4726905559760783e-10,1.5990547165024656e-09,1.2689569728794797e-09,0.014325225589999824,-1.27433208397,-0.5499270078600003,-1.2163008296000002,-0.18696399621000026,0.7016845193899997
-32.074999999999996,9.084820995302503e-10,2.9155787201728227e-10,8.583673013966089e-10,4.490412797311456e-10,1.6042006417643957e-09,1.2731822930261133e-09,0.014325225589999824,-0.2743320839700001,-1.5499270078600003,1.7836991703999998,0.8130360037899997,0.7016845193899997
-32.025,9.113517980065916e-10,2.926932832496114e-10,8.613265870385413e-10,4.508201058317942e-10,1.6093619120919345e-09,1.277420695331967e-09,1.01432522559,-1.27433208397,-0.5499270078600003,-1.2163008296000002,-1.1869639962100003,-1.2983154806100003
-31.975,9.142298830380192e-10,2.938328568080477e-10,8.642953775717444e-10,4.5260555673031895e-10,1.6145385690498556e-09,1.281672216786919e-09,-0.9856747744100002,0.7256679160299999,0.45007299213999974,-1.2163008296000002,-0.18696399621000026,-0.29831548061000035
-31.925000000000004,9.171163768331267e-10,2.949766068835319e-10,8.672737009579375e-10,4.5439765532935664e-10,1.6197306543020424e-09,1.285936894473554e-09,-0.9856747744100002,2.72566791603,0.45007299213999974,-1.2163008296000002,-1.1869639962100003,-1.2983154806100003
-31.874999999999993,9.20011301651805e-10,2.961245477111957e-10,8.702615852321653e-10,4.5619642460361596e-10,1.624938209611152e-09,1.2902147655673029e-09,0.014325225589999824,-0.2743320839700001,-1.5499270078600003,-1.2163008296000002,-1.1869639962100003,0.7016845193899997
-31.824999999999996,9.229146798054007e-10,2.972766935704269e-10,8.73259058502912e-10,4.5800188760005024e-10,1.630161276839035e-09,1.2945058673367e-09,1.01432522559,2.72566791603,-0.5499270078600003,0.7836991703999998,-0.18696399621000026,-1.2983154806100003
-31.775,9.258265336569441e-10,2.9843305878506266e-10,8.762661489521634e-10,4.5981406743810917e-10,1.6353998979471163e-09,1.2988102371433756e-09,-0.9856747744100002,0.7256679160299999,0.45007299213999974,-1.2163008296000002,-1.1869639962100003,0.7016845193899997
-31.725,9.287468856210489e-10,2.9959365772345907e-10,8.792828848356689e-10,4.616329873099403e-10,1.640654114996309e-09,1.3031279124426836e-09,0.014325225589999824,-0.2743320839700001,0.45007299213999974,-1.2163008296000002,-0.18696399621000026,-1.2983154806100003
-31.675000000000004,9.316757581641539e-10,3.007585047986432e-10,8.823092944831664e-10,4.634586704805109e-10,1.6459239701471579e-09,1.3074589307833605e-09,1.01432522559,1.72566791603,-0.5499270078600003,0.7836991703999998,-0.18696399621000026,-1.2983154806100003
-31.624999999999993,9.346131738045523e-10,3.019276144684255e-10,8.85345406298371e-10,4.6529114028783504e-10,1.6512095056604314e-09,1.3118033298080624e-09,4.0143252255899995,-1.27433208397,1.4500729921399997,-1.2163008296000002,-0.18696399621000026,-1.2983154806100003
-31.574999999999996,9.37559155112436e-10,3.0310100123551385e-10,8.883912487592116e-10,4.671304201433607e-10,1.6565107638968234e-09,1.3161611472535243e-09,0.014325225589999824,-0.2743320839700001,-0.5499270078600003,-0.2163008296000002,0.8130360037899997,1.7016845193899997
-31.525,9.405137247102056e-10,3.0427867964765665e-10,8.914468504180585e-10,4.689765335318021e-10,1.6618277873174743e-09,1.32053242095069e-09,-0.9856747744100002,-0.2743320839700001,-1.5499270078600003,0.7836991703999998,-0.18696399621000026,2.7016845193899997
-31.475,9.434769052722726e-10,3.0546066429774425e-10,8.945122399018108e-10,4.708295040116589e-10,1.6671606184841894e-09,1.3249171888249278e-09,0.014325225589999824,-0.2743320839700001,0.45007299213999974,-1.2163008296000002,-1.1869639962100003,-0.29831548061000035
-31.425000000000004,9.464487195254259e-10,3.066469698239444e-10,8.975874459120854e-10,4.726893552153954e-10,1.6725093000593256e-09,1.3293154888961499e-09,3.01432522559,1.72566791603,-1.5499270078600003,0.7836991703999998,-1.1869639962100003,-1.2983154806100003
-31.374999999999993,9.494291902486987e-10,3.078376109098496e-10,9.006724972254588e-10,4.745561108494024e-10,1.6778738748061745e-09,1.3337273592791985e-09,-0.9856747744100002,-1.27433208397,-0.5499270078600003,-0.2163008296000002,0.8130360037899997,0.7016845193899997
-31.324999999999996,9.524183402736284e-10,3.090326022845454e-10,9.037674226933874e-10,4.764297946944963e-10,1.6832543855893947e-09,1.3381528381838816e-09,-0.9856747744100002,-0.2743320839700001,-0.5499270078600003,1.7836991703999998,0.8130360037899997,-1.2983154806100003
-31.275,9.554161924842862e-10,3.102319587227893e-10,9.068722512426802e-10,4.783104306058542e-10,1.6886508753747319e-09,1.3425919639151894e-09,0.014325225589999824,-1.27433208397,-1.5499270078600003,-0.2163008296000002,-1.1869639962100003,1.7016845193899997
-31.225,9.584227698174423e-10,3.114356950451102e-10,9.099870118754315e-10,4.801980425134895e-10,1.69406338722945e-09,1.3470447748735766e-09,0.014325225589999824,1.72566791603,1.4500729921399997,1.7836991703999998,-0.18696399621000026,1.7016845193899997
-31.175000000000004,9.614380952625135e-10,3.12643826117924e-10,9.131117336693948e-10,4.820926544222135e-10,1.6994919643226953e-09,1.3515113095550464e-09,-0.9856747744100002,-1.27433208397,-1.5499270078600003,1.7836991703999998,-0.18696399621000026,1.7016845193899997
-31.124999999999993,9.644621918618531e-10,3.1385636685369033e-10,9.162464457779389e-10,4.839942904120588e-10,1.704936649925524e-09,1.3559916065514535e-09,0.014325225589999824,0.7256679160299999,-0.5499270078600003,-0.2163008296000002,0.8130360037899997,-0.29831548061000035
-31.074999999999996,9.67495082710642e-10,3.1507333221101234e-10,9.193911774303056e-10,4.85902974638295e-10,1.7103974874108101e-09,1.3604857045506442e-09,1.01432522559,-1.27433208397,-0.5499270078600003,1.7836991703999998,-0.18696399621000026,-0.29831548061000035
-31.025,9.705367909571927e-10,3.1629473719477543e-10,9.225459579318018e-10,4.878187313316892e-10,1.7158745202539925e-09,1.3649936423365887e-09,-0.9856747744100002,-0.2743320839700001,-0.5499270078600003,0.7836991703999998,-1.1869639962100003,0.7016845193899997
-30.975,9.735873398029793e-10,3.1752059685627893e-10,9.257108166639516e-10,4.897415847987965e-10,1.7213677920330589e-09,1.3695154587898094e-09,2.01432522559,0.7256679160299999,2.45007299214,-0.2163008296000002,-0.18696399621000026,-1.2983154806100003
-30.925000000000004,9.766467525025422e-10,3.187509262933239e-10,9.288857830845724e-10,4.916715594222806e-10,1.7268773464284468e-09,1.374051192887273e-09,-0.9856747744100002,-1.27433208397,0.45007299213999974,0.7836991703999998,-1.1869639962100003,1.7016845193899997
-30.874999999999993,9.79715052363986e-10,3.1998574065039707e-10,9.32070886728204e-10,4.936086796605918e-10,1.7324032272236308e-09,1.3786008837028605e-09,0.014325225589999824,-0.2743320839700001,-1.5499270078600003,2.7836991704,-0.18696399621000026,-1.2983154806100003
-30.824999999999996,9.827922627484978e-10,3.212250551187635e-10,9.352661572058148e-10,4.955529700487891e-10,1.7379454783052725e-09,1.3831645704074205e-09,1.01432522559,-0.2743320839700001,0.45007299213999974,-0.2163008296000002,-0.18696399621000026,1.7016845193899997
-30.775,9.858784070713057e-10,3.224688849365949e-10,9.384716242054958e-10,4.975044551983862e-10,1.7435041436629736e-09,1.3877422922688517e-09,-0.9856747744100002,1.72566791603,0.45007299213999974,1.7836991703999998,-1.1869639962100003,0.7016845193899997
-30.725,9.889735088007195e-10,3.237172453891199e-10,9.416873174922332e-10,4.994631597977865e-10,1.7490792673902871e-09,1.3923340886527452e-09,-0.9856747744100002,-0.2743320839700001,-0.5499270078600003,-1.2163008296000002,-1.1869639962100003,1.7016845193899997
-30.675000000000004,9.92077591459122e-10,3.249701518087178e-10,9.449132669083278e-10,5.014291086123235e-10,1.754670893684049e-09,1.3969399990219842e-09,0.014325225589999824,-0.2743320839700001,-1.5499270078600003,-1.2163008296000002,1.8130360037899997,-0.29831548061000035
-30.624999999999993,9.951906786225502e-10,3.2622761957507935e-10,9.48149502373349e-10,5.034023264845287e-10,1.760279066845224e-09,1.4015600629374992e-09,0.014325225589999824,-0.2743320839700001,-0.5499270078600003,-0.2163008296000002,0.8130360037899997,-1.2983154806100003
-30.574999999999996,9.983127939211468e-10,3.2748966411531015e-10,9.513960538844786e-10,5.053828383342557e-10,1.7659038312787263e-09,1.40619432005807e-09,-0.9856747744100002,1.72566791603,1.4500729921399997,0.7836991703999998,-0.18696399621000026,-0.29831548061000035
-30.525,1.0014439610388769e-09,3.2875630090407757e-10,9.546529515165837e-10,5.073706691590636e-10,1.7715452314937449e-09,1.4108428101406593e-09,0.014325225589999824,-1.27433208397,0.45007299213999974,-1.2163008296000002,0.8130360037899997,-0.29831548061000035
-30.475,1.0045842037139383e-09,3.3002754546374337e-10,9.57920225422427e-10,5.093658440345172e-10,1.7772033121040167e-09,1.4155055730407611e-09,1.01432522559,2.72566791603,-1.5499270078600003,0.7836991703999998,1.8130360037899997,2.7016845193899997
-30.425000000000004,1.0077335457386206e-09,3.313034133644622e-10,9.611979058327947e-10,5.113683881137924e-10,1.782878117827851e-09,1.4201826487123957e-09,-0.9856747744100002,0.7256679160299999,0.45007299213999974,-0.2163008296000002,-1.1869639962100003,-0.29831548061000035
-30.374999999999993,1.0108920109598013e-09,3.325839202243515e-10,9.644860230567493e-10,5.13378326628844e-10,1.788569693488578e-09,1.4248740772084508e-09,1.01432522559,0.7256679160299999,1.4500729921399997,-0.2163008296000002,-1.1869639962100003,-1.2983154806100003
-30.324999999999996,1.0140596232784194e-09,3.3386908170959827e-10,9.67784607481687e-10,5.153956848896623e-10,1.794278084014397e-09,1.4295798986806917e-09,0.014325225589999824,0.7256679160299999,0.45007299213999974,-1.2163008296000002,-1.1869639962100003,-1.2983154806100003
-30.275,1.0172364066502314e-09,3.351589135345823e-10,9.710936895736344e-10,5.174204882850667e-10,1.800003334438979e-09,1.43430015338027e-09,3.01432522559,-0.2743320839700001,-1.5499270078600003,0.7836991703999998,-1.1869639962100003,-0.29831548061000035
-30.225,1.0204223850854385e-09,3.364534314620307e-10,9.744132998772511e-10,5.194527622828938e-10,1.8057454899013637e-09,1.439034881657549e-09,0.014325225589999824,2.72566791603,-0.5499270078600003,1.7836991703999998,-1.1869639962100003,-1.2983154806100003
-30.175000000000004,1.023617582649103e-09,3.3775265130314154e-10,9.777434690161252e-10,5.214925324299173e-10,1.8115045956461578e-09,1.4437841239627445e-09,0.014325225589999824,-0.2743320839700001,-1.5499270078600003,-1.2163008296000002,0.8130360037899997,-0.29831548061000035
-30.124999999999993,1.0268220234608288e-09,3.3905658891769897e-10,9.81084227693055e-10,5.235398243523285e-10,1.8172806970241203e-09,1.4485479208456617e-09,-0.9856747744100002,-1.27433208397,0.45007299213999974,-0.2163008296000002,-0.18696399621000026,0.7016845193899997
-30.074999999999996,1.0300357316954834e-09,3.4036526021423576e-10,9.84435606689859e-10,5.255946637559235e-10,1.823073839491771e-09,1.4533263129563264e-09,0.014325225589999824,-0.2743320839700001,-0.5499270078600003,1.7836991703999998,0.8130360037899997,-0.29831548061000035
-30.025,1.0332587315827046e-09,3.416786811501121e-10,9.877976368678947e-10,5.276570764262607e-10,1.8288840686121346e-09,1.4581193410449135e-09,-0.9856747744100002,0.7256679160299999,-1.5499270078600003,0.7836991703999998,-1.1869639962100003,1.7016845193899997
-29.975,1.0364910474074374e-09,3.429968677317107e-10,9.911703491680626e-10,5.297270882286369e-10,1.8347114300544466e-09,1.462927045962023e-09,1.01432522559,-0.2743320839700001,0.45007299213999974,-0.2163008296000002,-0.18696399621000026,0.7016845193899997
-29.925000000000004,1.0397327035095345e-09,3.443198360145332e-10,9.945537746111333e-10,5.318047251088435e-10,1.8405559695950876e-09,1.4677494686588964e-09,1.01432522559,-0.2743320839700001,0.45007299213999974,-1.2163008296000002,1.8130360037899997,0.7016845193899997
-29.874999999999993,1.0429837242845638e-09,3.456476021033325e-10,9.979479442976371e-10,5.338900130929355e-10,1.8464177331167094e-09,1.4725866501876814e-09,-0.9856747744100002,0.7256679160299999,-0.5499270078600003,-1.2163008296000002,-1.1869639962100003,1.7016845193899997
-29.824999999999996,1.0462441341832169e-09,3.4698018215228063e-10,1.0013528894083187e-09,5.35982978287568e-10,1.852296766609461e-09,1.477438631701463e-09,0.014325225589999824,0.7256679160299999,-0.5499270078600003,0.7836991703999998,-1.1869639962100003,-1.2983154806100003
-29.775,1.049513957711851e-09,3.483175923650354e-10,1.0047686412041688e-09,5.380836468803368e-10,1.8581931161706377e-09,1.48230545445474e-09,0.014325225589999824,-0.2743320839700001,-0.5499270078600003,-0.2163008296000002,-1.1869639962100003,-0.29831548061000035
-29.725,1.052793219432384e-09,3.4965984899493354e-10,1.0081952310266103e-09,5.401920451398151e-10,1.8641068280050164e-09,1.4871871598033056e-09,0.014325225589999824,-1.27433208397,-1.5499270078600003,-1.2163008296000002,0.8130360037899997,-0.29831548061000035
-29.675000000000004,1.0560819439624095e-09,3.510069683451118e-10,1.0116326902976723e-09,5.423081994160494e-10,1.8700379484250564e-09,1.492083789204716e-09,0.014325225589999824,-0.2743320839700001,-0.5499270078600003,-1.2163008296000002,-0.18696399621000026,2.7016845193899997
-29.624999999999993,1.0593801559755062e-09,3.5235896676862486e-10,1.015081050520277e-09,5.444321361403793e-10,1.875986523851209e-09,1.496995384218415e-09,-0.9856747744100002,0.7256679160299999,-1.5499270078600003,-0.2163008296000002,0.8130360037899997,-0.29831548061000035
-29.574999999999996,1.06268788020092e-09,3.537158606685886e-10,1.0185403432781417e-09,5.465638818260284e-10,1.881952600811802e-09,1.5019219865059162e-09,0.014325225589999824,3.72566791603,-0.5499270078600003,-1.2163008296000002,-1.1869639962100003,0.7016845193899997
-29.525,1.0660051414241457e-09,3.550776664983185e-10,1.0220106002363113e-09,5.487034630679221e-10,1.8879362259435617e-09,1.5068636378309395e-09,-0.9856747744100002,-1.27433208397,-0.5499270078600003,-0.2163008296000002,-0.18696399621000026,-1.2983154806100003
-29.475,1.0693319644868346e-09,3.5644440076145917e-10,1.0254918531409439e-09,5.50850906543593e-10,1.893937445991868e-09,1.5118203800598594e-09,-0.9856747744100002,-0.2743320839700001,-1.5499270078600003,-0.2163008296000002,1.8130360037899997,-1.2983154806100003
-29.425000000000004,1.0726683742865756e-09,3.578160800121454e-10,1.028984133819904e-09,5.53006239012563e-10,1.8999563078104265e-09,1.5167922551616085e-09,1.01432522559,1.72566791603,0.45007299213999974,0.7836991703999998,-1.1869639962100003,-1.2983154806100003
-29.374999999999993,1.0760143957775733e-09,3.5919272085507464e-10,1.0324874741825899e-09,5.551694873171577e-10,1.9059928583622745e-09,1.5217793052081139e-09,2.01432522559,0.7256679160299999,-1.5499270078600003,-0.2163008296000002,-1.1869639962100003,0.7016845193899997
-29.324999999999996,1.0793700539702175e-09,3.6057433994570363e-10,1.036001906220269e-09,5.573406783824473e-10,1.912047144719314e-09,1.5267815723743725e-09,0.014325225589999824,-1.27433208397,-1.5499270078600003,-1.2163008296000002,-1.1869639962100003,0.7016845193899997
-29.275,1.0827353739317507e-09,3.619609539903801e-10,1.0395274620062071e-09,5.595198392166599e-10,1.9181192140626488e-09,1.5317990989388283e-09,0.014325225589999824,-0.2743320839700001,0.45007299213999974,-1.2163008296000002,0.8130360037899997,-0.29831548061000035
-29.225,1.0861103807857264e-09,3.6335257974643834e-10,1.0430641736958455e-09,5.617069969113424e-10,1.9242091136831965e-09,1.5368319272832139e-09,5.0143252255899995,1.72566791603,2.45007299214,-0.2163008296000002,0.8130360037899997,-0.29831548061000035
-29.175000000000004,1.0894950997126475e-09,3.647492340223849e-10,1.0466120735270209e-09,5.639021786413624e-10,1.930316890981379e-09,1.5418800998933689e-09,1.01432522559,-1.27433208397,-0.5499270078600003,-1.2163008296000002,-0.18696399621000026,1.7016845193899997
-29.124999999999993,1.092889555949653e-09,3.661509336779896e-10,1.0501711938201558e-09,5.661054116655149e-10,1.936442593467596e-09,1.5469436593587293e-09,-0.9856747744100002,-0.2743320839700001,1.4500729921399997,-0.2163008296000002,0.8130360037899997,-0.29831548061000035
-29.074999999999996,1.0962937747910998e-09,3.6755769562445926e-10,1.0537415669783019e-09,5.683167233265897e-10,1.9425862687624614e-09,1.552022648373127e-09,1.01432522559,1.72566791603,-0.5499270078600003,0.7836991703999998,0.8130360037899997,0.7016845193899997
-29.025,1.0997077815881059e-09,3.6896953682457014e-10,1.0573232254874797e-09,5.705361410512741e-10,1.948747964596815e-09,1.5571171097346939e-09,0.014325225589999824,-0.2743320839700001,-0.5499270078600003,-0.2163008296000002,-0.18696399621000026,-0.29831548061000035
-28.975,1.1031316017491673e-09,3.7038647429278587e-10,1.0609162019167364e-09,5.727636923508948e-10,1.95492772881201e-09,1.5622270863461593e-09,0.014325225589999824,0.7256679160299999,1.4500729921399997,-0.2163008296000002,-0.18696399621000026,-0.29831548061000035
-28.925000000000004,1.106565260739744e-09,3.7180852509541086e-10,1.0645205289183826e-09,5.749994048214523e-10,1.961125609360258e-09,1.5673526212150498e-09,0.014325225589999824,0.7256679160299999,-1.5499270078600003,-0.2163008296000002,-0.18696399621000026,-0.29831548061000035
-28.874999999999993,1.110008784082973e-09,3.73235706350735e-10,1.0681362392281398e-09,5.772433061436528e-10,1.9673416543048374e-09,1.5724937574539226e-09,2.01432522559,-0.2743320839700001,-0.5499270078600003,-0.2163008296000002,-0.18696399621000026,-0.29831548061000035
-28.824999999999996,1.1134621973591763e-09,3.746680352291511e-10,1.0717633656653322e-09,5.794954240835277e-10,1.973575911819796e-09,1.5776505382804763e-09,4.0143252255899995,-1.27433208397,-1.5499270078600003,-1.2163008296000002,-0.18696399621000026,2.7016845193899997
-28.775,1.1169255262064028e-09,3.7610552895332634e-10,1.0754019411331113e-09,5.817557864922042e-10,1.979828430190826e-09,1.5828230070179625e-09,0.014325225589999824,-0.2743320839700001,0.45007299213999974,0.7836991703999998,-0.18696399621000026,-1.2983154806100003
-28.725,1.1203987963202796e-09,3.7754820479830506e-10,1.0790519986185421e-09,5.840244213065267e-10,1.9860992578153093e-09,1.5880112070951636e-09,0.014325225589999824,-0.2743320839700001,-0.5499270078600003,1.7836991703999998,-0.18696399621000026,-1.2983154806100003
-28.675000000000004,1.123882033454241e-09,3.7899608009167715e-10,1.0827135711927972e-09,5.863013565489243e-10,1.992388443202125e-09,1.593215182046749e-09,0.014325225589999824,1.72566791603,-0.5499270078600003,-1.2163008296000002,1.8130360037899997,1.7016845193899997
-28.624999999999993,1.1273752634194409e-09,3.8044917221370343e-10,1.0863866920114726e-09,5.885866203281045e-10,1.998696034972227e-09,1.5984349755135466e-09,0.014325225589999824,-1.27433208397,1.4500729921399997,-1.2163008296000002,1.8130360037899997,-0.29831548061000035
-28.574999999999996,1.130878512085255e-09,3.819074985974715e-10,1.090071394314599e-09,5.908802408388517e-10,2.005022081858932e-09,1.603670631242515e-09,-0.9856747744100002,-0.2743320839700001,0.45007299213999974,2.7836991704,-0.18696399621000026,-1.2983154806100003
-28.525,1.1343918053787589e-09,3.8337107672902355e-10,1.0937677114268505e-09,5.931822463623231e-10,2.0113666327076797e-09,1.6089221930871854e-09,-0.9856747744100002,0.7256679160299999,0.45007299213999974,-0.2163008296000002,-1.1869639962100003,-1.2983154806100003
-28.475,1.1379151692857166e-09,3.8483992414748167e-10,1.097475676757771e-09,5.954926652665143e-10,2.0177297364768052e-09,1.6141897050078047e-09,-0.9856747744100002,-1.27433208397,-0.5499270078600003,-1.2163008296000002,-1.1869639962100003,0.7016845193899997
-28.425000000000004,1.141448629849653e-09,3.86314058445229e-10,1.101195323801953e-09,5.978115260065621e-10,2.024111442237351e-09,1.6194732110714928e-09,1.01432522559,-1.27433208397,-0.5499270078600003,1.7836991703999998,-1.1869639962100003,-0.29831548061000035
-28.374999999999993,1.144992213172714e-09,3.877934972680229e-10,1.1049266861392823e-09,6.001388571244007e-10,2.030511799173243e-09,1.624772755452548e-09,-0.9856747744100002,1.72566791603,0.45007299213999974,0.7836991703999998,-1.1869639962100003,-0.29831548061000035
-28.324999999999996,1.148545945415627e-09,3.8927825831515554e-10,1.1086697974348507e-09,6.02474687249604e-10,2.0369308565817882e-09,1.63008838243258e-09,0.014325225589999824,-0.2743320839700001,-0.5499270078600003,-1.2163008296000002,-1.1869639962100003,0.7016845193899997
-28.275,1.1521098527975288e-09,3.907683593395606e-10,1.112424691439465e-09,6.048190450992449e-10,2.0433686638739147e-09,1.6354201364007818e-09,0.014325225589999824,0.7256679160299999,0.45007299213999974,2.7836991704,-1.1869639962100003,-1.2983154806100003
-28.225,1.1556839615962964e-09,3.922638181480143e-10,1.116191401989657e-09,6.071719594783683e-10,2.0498252705738594e-09,1.6407680618541346e-09,0.014325225589999824,-0.2743320839700001,-1.5499270078600003,-1.2163008296000002,-1.1869639962100003,-0.29831548061000035
-28.175000000000004,1.159268298148602e-09,3.937646526012115e-10,1.1199699630079267e-09,6.095334592800891e-10,2.0563007263198393e-09,1.6461322033975958e-09,-0.9856747744100002,2.72566791603,-0.5499270078600003,-1.2163008296000002,-0.18696399621000026,0.7016845193899997
